  #energy          xx             yy              zz              xy              yz              zx
  0.00000000E+00  0.00000000E+00  0.00000000E+00  0.00000000E+00  0.00000000E+00  0.00000000E+00  0.00000000E+00
  0.36700000E-01  0.25401786E-03  0.25401786E-03  0.25401786E-03  0.00000000E+00  0.00000000E+00  0.00000000E+00
  0.73500000E-01  0.50800320E-03  0.50800320E-03  0.50800320E-03  0.00000000E+00  0.00000000E+00  0.00000000E+00
  0.11020000E+00  0.78501212E-03  0.78501212E-03  0.78501212E-03  0.00000000E+00  0.00000000E+00  0.00000000E+00
  0.14690000E+00  0.10388205E-02  0.10388205E-02  0.10388205E-02  0.00000000E+00  0.00000000E+00  0.00000000E+00
  0.18360000E+00  0.12925063E-02  0.12925063E-02  0.12925063E-02  0.00000000E+00  0.00000000E+00  0.00000000E+00
  0.22040000E+00  0.15460126E-02  0.15460126E-02  0.15460126E-02  0.00000000E+00  0.00000000E+00  0.00000000E+00
  0.25710000E+00  0.18223863E-02  0.18223863E-02  0.18223863E-02  0.00000000E+00  0.00000000E+00  0.00000000E+00
  0.29380000E+00  0.20754514E-02  0.20754514E-02  0.20754514E-02  0.00000000E+00  0.00000000E+00  0.00000000E+00
  0.33050000E+00  0.23513028E-02  0.23513028E-02  0.23513028E-02  0.00000000E+00  0.00000000E+00  0.00000000E+00
  0.36730000E+00  0.26268099E-02  0.26268099E-02  0.26268099E-02  0.00000000E+00  0.00000000E+00  0.00000000E+00
  0.40400000E+00  0.29019909E-02  0.29019909E-02  0.29019909E-02  0.00000000E+00  0.00000000E+00  0.00000000E+00
  0.44070000E+00  0.31767195E-02  0.31767195E-02  0.31767195E-02  0.00000000E+00  0.00000000E+00  0.00000000E+00
  0.47740000E+00  0.34510539E-02  0.34510539E-02  0.34510539E-02  0.00000000E+00  0.00000000E+00  0.00000000E+00
  0.51420000E+00  0.37248904E-02  0.37248904E-02  0.37248904E-02  0.00000000E+00  0.00000000E+00  0.00000000E+00
  0.55090000E+00  0.40211651E-02  0.40211651E-02  0.40211651E-02  0.00000000E+00  0.00000000E+00  0.00000000E+00
  0.58760000E+00  0.42939095E-02  0.42939095E-02  0.42939095E-02  0.00000000E+00  0.00000000E+00  0.00000000E+00
  0.62430000E+00  0.45889808E-02  0.45889808E-02  0.45889808E-02  0.00000000E+00  0.00000000E+00  0.00000000E+00
  0.66110000E+00  0.48833569E-02  0.48833569E-02  0.48833569E-02  0.00000000E+00  0.00000000E+00  0.00000000E+00
  0.69780000E+00  0.51999010E-02  0.51999010E-02  0.51999010E-02  0.00000000E+00  0.00000000E+00  0.00000000E+00
  0.73450000E+00  0.55156798E-02  0.55156798E-02  0.55156798E-02  0.00000000E+00  0.00000000E+00  0.00000000E+00
  0.77120000E+00  0.58305349E-02  0.58305349E-02  0.58305349E-02  0.00000000E+00  0.00000000E+00  0.00000000E+00
  0.80800000E+00  0.61444756E-02  0.61444756E-02  0.61444756E-02  0.00000000E+00  0.00000000E+00  0.00000000E+00
  0.84470000E+00  0.64802753E-02  0.64802753E-02  0.64802753E-02  0.00000000E+00  0.00000000E+00  0.00000000E+00
  0.88140000E+00  0.68150220E-02  0.68150220E-02  0.68150220E-02  0.00000000E+00  0.00000000E+00  0.00000000E+00
  0.91810000E+00  0.71485953E-02  0.71485953E-02  0.71485953E-02  0.00000000E+00  0.00000000E+00  0.00000000E+00
  0.95490000E+00  0.75036781E-02  0.75036781E-02  0.75036781E-02  0.00000000E+00  0.00000000E+00  0.00000000E+00
  0.99160000E+00  0.78574197E-02  0.78574197E-02  0.78574197E-02  0.00000000E+00  0.00000000E+00  0.00000000E+00
  0.10283000E+01  0.82324416E-02  0.82324416E-02  0.82324416E-02  0.00000000E+00  0.00000000E+00  0.00000000E+00
  0.10651000E+01  0.86059462E-02  0.86059462E-02  0.86059462E-02  0.00000000E+00  0.00000000E+00  0.00000000E+00
  0.11018000E+01  0.90004891E-02  0.90004891E-02  0.90004891E-02  0.00000000E+00  0.00000000E+00  0.00000000E+00
  0.11385000E+01  0.94158146E-02  0.94158146E-02  0.94158146E-02  0.00000000E+00  0.00000000E+00  0.00000000E+00
  0.11752000E+01  0.98292014E-02  0.98292014E-02  0.98292014E-02  0.00000000E+00  0.00000000E+00  0.00000000E+00
  0.12120000E+01  0.10263083E-01  0.10263083E-01  0.10263083E-01  0.00000000E+00  0.00000000E+00  0.00000000E+00
  0.12487000E+01  0.10694805E-01  0.10694805E-01  0.10694805E-01  0.00000000E+00  0.00000000E+00  0.00000000E+00
  0.12854000E+01  0.11146609E-01  0.11146609E-01  0.11146609E-01  0.00000000E+00  0.00000000E+00  0.00000000E+00
  0.13221000E+01  0.11640674E-01  0.11640674E-01  0.11640674E-01  0.00000000E+00  0.00000000E+00  0.00000000E+00
  0.13589000E+01  0.12131848E-01  0.12131848E-01  0.12131848E-01  0.00000000E+00  0.00000000E+00  0.00000000E+00
  0.13956000E+01  0.12642576E-01  0.12642576E-01  0.12642576E-01  0.00000000E+00  0.00000000E+00  0.00000000E+00
  0.14323000E+01  0.13172253E-01  0.13172253E-01  0.13172253E-01  0.00000000E+00  0.00000000E+00  0.00000000E+00
  0.14690000E+01  0.13720752E-01  0.13720752E-01  0.13720752E-01  0.00000000E+00  0.00000000E+00  0.00000000E+00
  0.15058000E+01  0.14309830E-01  0.14309830E-01  0.14309830E-01  0.00000000E+00  0.00000000E+00  0.00000000E+00
  0.15425000E+01  0.14916958E-01  0.14916958E-01  0.14916958E-01  0.00000000E+00  0.00000000E+00  0.00000000E+00
  0.15792000E+01  0.15541697E-01  0.15541697E-01  0.15541697E-01  0.00000000E+00  0.00000000E+00  0.00000000E+00
  0.16159000E+01  0.16205730E-01  0.16205730E-01  0.16205730E-01  0.00000000E+00  0.00000000E+00  0.00000000E+00
  0.16527000E+01  0.16886476E-01  0.16886476E-01  0.16886476E-01  0.00000000E+00  0.00000000E+00  0.00000000E+00
  0.16894000E+01  0.17627166E-01  0.17627166E-01  0.17627166E-01  0.00000000E+00  0.00000000E+00  0.00000000E+00
  0.17261000E+01  0.18405256E-01  0.18405256E-01  0.18405256E-01  0.00000000E+00  0.00000000E+00  0.00000000E+00
  0.17628000E+01  0.19198250E-01  0.19198250E-01  0.19198250E-01  0.00000000E+00  0.00000000E+00  0.00000000E+00
  0.17996000E+01  0.20070761E-01  0.20070761E-01  0.20070761E-01  0.00000000E+00  0.00000000E+00  0.00000000E+00
  0.18363000E+01  0.20977961E-01  0.20977961E-01  0.20977961E-01  0.00000000E+00  0.00000000E+00  0.00000000E+00
  0.18730000E+01  0.21940872E-01  0.21940872E-01  0.21940872E-01  0.00000000E+00  0.00000000E+00  0.00000000E+00
  0.19097000E+01  0.22958145E-01  0.22958145E-01  0.22958145E-01  0.00000000E+00  0.00000000E+00  0.00000000E+00
  0.19465000E+01  0.24049931E-01  0.24049931E-01  0.24049931E-01  0.00000000E+00  0.00000000E+00  0.00000000E+00
  0.19832000E+01  0.25214475E-01  0.25214475E-01  0.25214475E-01  0.00000000E+00  0.00000000E+00  0.00000000E+00
  0.20199000E+01  0.26450379E-01  0.26450379E-01  0.26450379E-01  0.00000000E+00  0.00000000E+00  0.00000000E+00
  0.20567000E+01  0.27776829E-01  0.27776829E-01  0.27776829E-01  0.00000000E+00  0.00000000E+00  0.00000000E+00
  0.20934000E+01  0.29191240E-01  0.29191240E-01  0.29191240E-01  0.00000000E+00  0.00000000E+00  0.00000000E+00
  0.21301000E+01  0.30691381E-01  0.30691381E-01  0.30691381E-01  0.00000000E+00  0.00000000E+00  0.00000000E+00
  0.21668000E+01  0.32274359E-01  0.32274359E-01  0.32274359E-01  0.00000000E+00  0.00000000E+00  0.00000000E+00
  0.22036000E+01  0.33957240E-01  0.33957240E-01  0.33957240E-01  0.00000000E+00  0.00000000E+00  0.00000000E+00
  0.22403000E+01  0.35715742E-01  0.35715742E-01  0.35715742E-01  0.00000000E+00  0.00000000E+00  0.00000000E+00
  0.22770000E+01  0.37586065E-01  0.37586065E-01  0.37586065E-01  0.00000000E+00  0.00000000E+00  0.00000000E+00
  0.23137000E+01  0.39582677E-01  0.39582677E-01  0.39582677E-01  0.00000000E+00  0.00000000E+00  0.00000000E+00
  0.23505000E+01  0.41778101E-01  0.41778101E-01  0.41778101E-01  0.00000000E+00  0.00000000E+00  0.00000000E+00
  0.23872000E+01  0.44343076E-01  0.44343076E-01  0.44343076E-01  0.00000000E+00  0.00000000E+00  0.00000000E+00
  0.24239000E+01  0.47441233E-01  0.47441233E-01  0.47441233E-01  0.00000000E+00  0.00000000E+00  0.00000000E+00
  0.24606000E+01  0.51425305E-01  0.51425305E-01  0.51425305E-01  0.00000000E+00  0.00000000E+00  0.00000000E+00
  0.24974000E+01  0.56733291E-01  0.56733291E-01  0.56733291E-01  0.00000000E+00  0.00000000E+00  0.00000000E+00
  0.25341000E+01  0.63917916E-01  0.63917916E-01  0.63917916E-01  0.00000000E+00  0.00000000E+00  0.00000000E+00
  0.25708000E+01  0.73603314E-01  0.73603314E-01  0.73603314E-01  0.00000000E+00  0.00000000E+00  0.00000000E+00
  0.26075000E+01  0.86425517E-01  0.86425517E-01  0.86425517E-01  0.00000000E+00  0.00000000E+00  0.00000000E+00
  0.26443000E+01  0.10299488E+00  0.10299488E+00  0.10299488E+00  0.00000000E+00  0.00000000E+00  0.00000000E+00
  0.26810000E+01  0.12372088E+00  0.12372088E+00  0.12372088E+00  0.00000000E+00  0.00000000E+00  0.00000000E+00
  0.27177000E+01  0.14883548E+00  0.14883548E+00  0.14883548E+00  0.00000000E+00  0.00000000E+00  0.00000000E+00
  0.27544000E+01  0.17833935E+00  0.17833935E+00  0.17833935E+00  0.00000000E+00  0.00000000E+00  0.00000000E+00
  0.27912000E+01  0.21201061E+00  0.21201061E+00  0.21201061E+00  0.00000000E+00  0.00000000E+00  0.00000000E+00
  0.28279000E+01  0.24939507E+00  0.24939507E+00  0.24939507E+00  0.00000000E+00  0.00000000E+00  0.00000000E+00
  0.28646000E+01  0.28996253E+00  0.28996253E+00  0.28996253E+00  0.00000000E+00  0.00000000E+00  0.00000000E+00
  0.29014000E+01  0.33303039E+00  0.33303039E+00  0.33303039E+00  0.00000000E+00  0.00000000E+00  0.00000000E+00
  0.29381000E+01  0.37792551E+00  0.37792551E+00  0.37792551E+00  0.00000000E+00  0.00000000E+00  0.00000000E+00
  0.29748000E+01  0.42385339E+00  0.42385339E+00  0.42385339E+00  0.00000000E+00  0.00000000E+00  0.00000000E+00
  0.30115000E+01  0.47005095E+00  0.47005095E+00  0.47005095E+00  0.00000000E+00  0.00000000E+00  0.00000000E+00
  0.30483000E+01  0.51568745E+00  0.51568745E+00  0.51568745E+00  0.00000000E+00  0.00000000E+00  0.00000000E+00
  0.30850000E+01  0.55991071E+00  0.55991071E+00  0.55991071E+00  0.00000000E+00  0.00000000E+00  0.00000000E+00
  0.31217000E+01  0.60183977E+00  0.60183977E+00  0.60183977E+00  0.00000000E+00  0.00000000E+00  0.00000000E+00
  0.31584000E+01  0.64054594E+00  0.64054594E+00  0.64054594E+00  0.00000000E+00  0.00000000E+00  0.00000000E+00
  0.31952000E+01  0.67516472E+00  0.67516472E+00  0.67516472E+00  0.00000000E+00  0.00000000E+00  0.00000000E+00
  0.32319000E+01  0.70491568E+00  0.70491568E+00  0.70491568E+00  0.00000000E+00  0.00000000E+00  0.00000000E+00
  0.32686000E+01  0.72943390E+00  0.72943390E+00  0.72943390E+00  0.00000000E+00  0.00000000E+00  0.00000000E+00
  0.33053000E+01  0.74893376E+00  0.74893376E+00  0.74893376E+00  0.00000000E+00  0.00000000E+00  0.00000000E+00
  0.33421000E+01  0.76452099E+00  0.76452099E+00  0.76452099E+00  0.00000000E+00  0.00000000E+00  0.00000000E+00
  0.33788000E+01  0.77823790E+00  0.77823790E+00  0.77823790E+00  0.00000000E+00  0.00000000E+00  0.00000000E+00
  0.34155000E+01  0.79281440E+00  0.79281440E+00  0.79281440E+00  0.00000000E+00  0.00000000E+00  0.00000000E+00
  0.34522000E+01  0.81116294E+00  0.81116294E+00  0.81116294E+00  0.00000000E+00  0.00000000E+00  0.00000000E+00
  0.34890000E+01  0.83568670E+00  0.83568670E+00  0.83568670E+00  0.00000000E+00  0.00000000E+00  0.00000000E+00
  0.35257000E+01  0.86761863E+00  0.86761863E+00  0.86761863E+00  0.00000000E+00  0.00000000E+00  0.00000000E+00
  0.35624000E+01  0.90688647E+00  0.90688647E+00  0.90688647E+00  0.00000000E+00  0.00000000E+00  0.00000000E+00
  0.35991000E+01  0.95206608E+00  0.95206608E+00  0.95206608E+00  0.00000000E+00  0.00000000E+00  0.00000000E+00
  0.36359000E+01  0.10008230E+01  0.10008230E+01  0.10008230E+01  0.00000000E+00  0.00000000E+00  0.00000000E+00
  0.36726000E+01  0.10503705E+01  0.10503705E+01  0.10503705E+01  0.00000000E+00  0.00000000E+00  0.00000000E+00
  0.37093000E+01  0.10979555E+01  0.10979555E+01  0.10979555E+01  0.00000000E+00  0.00000000E+00  0.00000000E+00
  0.37460000E+01  0.11411504E+01  0.11411504E+01  0.11411504E+01  0.00000000E+00  0.00000000E+00  0.00000000E+00
  0.37828000E+01  0.11781342E+01  0.11781342E+01  0.11781342E+01  0.00000000E+00  0.00000000E+00  0.00000000E+00
  0.38195000E+01  0.12077267E+01  0.12077267E+01  0.12077267E+01  0.00000000E+00  0.00000000E+00  0.00000000E+00
  0.38562000E+01  0.12294561E+01  0.12294561E+01  0.12294561E+01  0.00000000E+00  0.00000000E+00  0.00000000E+00
  0.38930000E+01  0.12436395E+01  0.12436395E+01  0.12436395E+01  0.00000000E+00  0.00000000E+00  0.00000000E+00
  0.39297000E+01  0.12512137E+01  0.12512137E+01  0.12512137E+01  0.00000000E+00  0.00000000E+00  0.00000000E+00
  0.39664000E+01  0.12538228E+01  0.12538228E+01  0.12538228E+01  0.00000000E+00  0.00000000E+00  0.00000000E+00
  0.40031000E+01  0.12533818E+01  0.12533818E+01  0.12533818E+01  0.00000000E+00  0.00000000E+00  0.00000000E+00
  0.40399000E+01  0.12518366E+01  0.12518366E+01  0.12518366E+01  0.00000000E+00  0.00000000E+00  0.00000000E+00
  0.40766000E+01  0.12506754E+01  0.12506754E+01  0.12506754E+01  0.00000000E+00  0.00000000E+00  0.00000000E+00
  0.41133000E+01  0.12506264E+01  0.12506264E+01  0.12506264E+01  0.00000000E+00  0.00000000E+00  0.00000000E+00
  0.41500000E+01  0.12516279E+01  0.12516279E+01  0.12516279E+01  0.00000000E+00  0.00000000E+00  0.00000000E+00
  0.41868000E+01  0.12529860E+01  0.12529860E+01  0.12529860E+01  0.00000000E+00  0.00000000E+00  0.00000000E+00
  0.42235000E+01  0.12538581E+01  0.12538581E+01  0.12538581E+01  0.00000000E+00  0.00000000E+00  0.00000000E+00
  0.42602000E+01  0.12537358E+01  0.12537358E+01  0.12537358E+01  0.00000000E+00  0.00000000E+00  0.00000000E+00
  0.42969000E+01  0.12526367E+01  0.12526367E+01  0.12526367E+01  0.00000000E+00  0.00000000E+00  0.00000000E+00
  0.43337000E+01  0.12511576E+01  0.12511576E+01  0.12511576E+01  0.00000000E+00  0.00000000E+00  0.00000000E+00
  0.43704000E+01  0.12500937E+01  0.12500937E+01  0.12500937E+01  0.00000000E+00  0.00000000E+00  0.00000000E+00
  0.44071000E+01  0.12500917E+01  0.12500917E+01  0.12500917E+01  0.00000000E+00  0.00000000E+00  0.00000000E+00
  0.44438000E+01  0.12511529E+01  0.12511529E+01  0.12511529E+01  0.00000000E+00  0.00000000E+00  0.00000000E+00
  0.44806000E+01  0.12526683E+01  0.12526683E+01  0.12526683E+01  0.00000000E+00  0.00000000E+00  0.00000000E+00
  0.45173000E+01  0.12535326E+01  0.12535326E+01  0.12535326E+01  0.00000000E+00  0.00000000E+00  0.00000000E+00
  0.45540000E+01  0.12524398E+01  0.12524398E+01  0.12524398E+01  0.00000000E+00  0.00000000E+00  0.00000000E+00
  0.45907000E+01  0.12484603E+01  0.12484603E+01  0.12484603E+01  0.00000000E+00  0.00000000E+00  0.00000000E+00
  0.46275000E+01  0.12411705E+01  0.12411705E+01  0.12411705E+01  0.00000000E+00  0.00000000E+00  0.00000000E+00
  0.46642000E+01  0.12308315E+01  0.12308315E+01  0.12308315E+01  0.00000000E+00  0.00000000E+00  0.00000000E+00
  0.47009000E+01  0.12184221E+01  0.12184221E+01  0.12184221E+01  0.00000000E+00  0.00000000E+00  0.00000000E+00
  0.47376000E+01  0.12052892E+01  0.12052892E+01  0.12052892E+01  0.00000000E+00  0.00000000E+00  0.00000000E+00
  0.47744000E+01  0.11931454E+01  0.11931454E+01  0.11931454E+01  0.00000000E+00  0.00000000E+00  0.00000000E+00
  0.48111000E+01  0.11834844E+01  0.11834844E+01  0.11834844E+01  0.00000000E+00  0.00000000E+00  0.00000000E+00
  0.48478000E+01  0.11773924E+01  0.11773924E+01  0.11773924E+01  0.00000000E+00  0.00000000E+00  0.00000000E+00
  0.48846000E+01  0.11752433E+01  0.11752433E+01  0.11752433E+01  0.00000000E+00  0.00000000E+00  0.00000000E+00
  0.49213000E+01  0.11764586E+01  0.11764586E+01  0.11764586E+01  0.00000000E+00  0.00000000E+00  0.00000000E+00
  0.49580000E+01  0.11796626E+01  0.11796626E+01  0.11796626E+01  0.00000000E+00  0.00000000E+00  0.00000000E+00
  0.49947000E+01  0.11829661E+01  0.11829661E+01  0.11829661E+01  0.00000000E+00  0.00000000E+00  0.00000000E+00
  0.50315000E+01  0.11843644E+01  0.11843644E+01  0.11843644E+01  0.00000000E+00  0.00000000E+00  0.00000000E+00
  0.50682000E+01  0.11821979E+01  0.11821979E+01  0.11821979E+01  0.00000000E+00  0.00000000E+00  0.00000000E+00
  0.51049000E+01  0.11755853E+01  0.11755853E+01  0.11755853E+01  0.00000000E+00  0.00000000E+00  0.00000000E+00
  0.51416000E+01  0.11644583E+01  0.11644583E+01  0.11644583E+01  0.00000000E+00  0.00000000E+00  0.00000000E+00
  0.51784000E+01  0.11498279E+01  0.11498279E+01  0.11498279E+01  0.00000000E+00  0.00000000E+00  0.00000000E+00
  0.52151000E+01  0.11333139E+01  0.11333139E+01  0.11333139E+01  0.00000000E+00  0.00000000E+00  0.00000000E+00
  0.52518000E+01  0.11169981E+01  0.11169981E+01  0.11169981E+01  0.00000000E+00  0.00000000E+00  0.00000000E+00
  0.52885000E+01  0.11027700E+01  0.11027700E+01  0.11027700E+01  0.00000000E+00  0.00000000E+00  0.00000000E+00
  0.53253000E+01  0.10918505E+01  0.10918505E+01  0.10918505E+01  0.00000000E+00  0.00000000E+00  0.00000000E+00
  0.53620000E+01  0.10844755E+01  0.10844755E+01  0.10844755E+01  0.00000000E+00  0.00000000E+00  0.00000000E+00
  0.53987000E+01  0.10799015E+01  0.10799015E+01  0.10799015E+01  0.00000000E+00  0.00000000E+00  0.00000000E+00
  0.54354000E+01  0.10766759E+01  0.10766759E+01  0.10766759E+01  0.00000000E+00  0.00000000E+00  0.00000000E+00
  0.54722000E+01  0.10731941E+01  0.10731941E+01  0.10731941E+01  0.00000000E+00  0.00000000E+00  0.00000000E+00
  0.55089000E+01  0.10679901E+01  0.10679901E+01  0.10679901E+01  0.00000000E+00  0.00000000E+00  0.00000000E+00
  0.55456000E+01  0.10603614E+01  0.10603614E+01  0.10603614E+01  0.00000000E+00  0.00000000E+00  0.00000000E+00
  0.55823000E+01  0.10502064E+01  0.10502064E+01  0.10502064E+01  0.00000000E+00  0.00000000E+00  0.00000000E+00
  0.56191000E+01  0.10381042E+01  0.10381042E+01  0.10381042E+01  0.00000000E+00  0.00000000E+00  0.00000000E+00
  0.56558000E+01  0.10249675E+01  0.10249675E+01  0.10249675E+01  0.00000000E+00  0.00000000E+00  0.00000000E+00
  0.56925000E+01  0.10116755E+01  0.10116755E+01  0.10116755E+01  0.00000000E+00  0.00000000E+00  0.00000000E+00
  0.57292000E+01  0.99889739E+00  0.99889739E+00  0.99889739E+00  0.00000000E+00  0.00000000E+00  0.00000000E+00
  0.57660000E+01  0.98701234E+00  0.98701234E+00  0.98701234E+00  0.00000000E+00  0.00000000E+00  0.00000000E+00
  0.58027000E+01  0.97617240E+00  0.97617240E+00  0.97617240E+00  0.00000000E+00  0.00000000E+00  0.00000000E+00
  0.58394000E+01  0.96657270E+00  0.96657270E+00  0.96657270E+00  0.00000000E+00  0.00000000E+00  0.00000000E+00
  0.58762000E+01  0.95844442E+00  0.95844442E+00  0.95844442E+00  0.00000000E+00  0.00000000E+00  0.00000000E+00
  0.59129000E+01  0.95222709E+00  0.95222709E+00  0.95222709E+00  0.00000000E+00  0.00000000E+00  0.00000000E+00
  0.59496000E+01  0.94813623E+00  0.94813623E+00  0.94813623E+00  0.00000000E+00  0.00000000E+00  0.00000000E+00
  0.59863000E+01  0.94613055E+00  0.94613055E+00  0.94613055E+00  0.00000000E+00  0.00000000E+00  0.00000000E+00
  0.60231000E+01  0.94552471E+00  0.94552471E+00  0.94552471E+00  0.00000000E+00  0.00000000E+00  0.00000000E+00
  0.60598000E+01  0.94515388E+00  0.94515388E+00  0.94515388E+00  0.00000000E+00  0.00000000E+00  0.00000000E+00
  0.60965000E+01  0.94355704E+00  0.94355704E+00  0.94355704E+00  0.00000000E+00  0.00000000E+00  0.00000000E+00
  0.61332000E+01  0.93929845E+00  0.93929845E+00  0.93929845E+00  0.00000000E+00  0.00000000E+00  0.00000000E+00
  0.61700000E+01  0.93143583E+00  0.93143583E+00  0.93143583E+00  0.00000000E+00  0.00000000E+00  0.00000000E+00
  0.62067000E+01  0.91967908E+00  0.91967908E+00  0.91967908E+00  0.00000000E+00  0.00000000E+00  0.00000000E+00
  0.62434000E+01  0.90461160E+00  0.90461160E+00  0.90461160E+00  0.00000000E+00  0.00000000E+00  0.00000000E+00
  0.62801000E+01  0.88737917E+00  0.88737917E+00  0.88737917E+00  0.00000000E+00  0.00000000E+00  0.00000000E+00
  0.63169000E+01  0.86946130E+00  0.86946130E+00  0.86946130E+00  0.00000000E+00  0.00000000E+00  0.00000000E+00
  0.63536000E+01  0.85242610E+00  0.85242610E+00  0.85242610E+00  0.00000000E+00  0.00000000E+00  0.00000000E+00
  0.63903000E+01  0.83747469E+00  0.83747469E+00  0.83747469E+00  0.00000000E+00  0.00000000E+00  0.00000000E+00
  0.64270000E+01  0.82536787E+00  0.82536787E+00  0.82536787E+00  0.00000000E+00  0.00000000E+00  0.00000000E+00
