  #energy          xx             yy              zz              xy              yz              zx
  0.00000000E+00  0.00000000E+00  0.00000000E+00  0.00000000E+00  0.00000000E+00  0.00000000E+00  0.00000000E+00
  0.25100000E-01  0.33636813E-03  0.33636813E-03  0.33636813E-03 -0.50761421E+02 -0.50761421E+02 -0.50761421E+02
  0.50200000E-01  0.69071481E-03  0.69071481E-03  0.69071481E-03 -0.10000000E+03 -0.10000000E+03 -0.10000000E+03
  0.75300000E-01  0.10789948E-02  0.10789948E-02  0.10789948E-02 -0.14634146E+03 -0.14634146E+03 -0.14634146E+03
  0.10040000E+00  0.15138943E-02  0.15138943E-02  0.15138943E-02 -0.22624434E+03 -0.22624434E+03 -0.22624434E+03
  0.12550000E+00  0.20039022E-02  0.20039022E-02  0.20039022E-02 -0.28571429E+03 -0.28571429E+03 -0.28571429E+03
  0.15060000E+00  0.25530564E-02  0.25530564E-02  0.25530564E-02 -0.32490975E+03 -0.32490975E+03 -0.32490975E+03
  0.17570000E+00  0.31617324E-02  0.31617324E-02  0.31617324E-02 -0.34700315E+03 -0.34700315E+03 -0.34700315E+03
  0.20080000E+00  0.38274072E-02  0.38274072E-02  0.38274072E-02 -0.38461538E+03 -0.38461538E+03 -0.38461538E+03
  0.22590000E+00  0.45459149E-02  0.45459149E-02  0.45459149E-02 -0.40000000E+03 -0.40000000E+03 -0.40000000E+03
  0.25100000E+00  0.53124385E-02  0.53124385E-02  0.53124385E-02 -0.42452830E+03 -0.42452830E+03 -0.42452830E+03
  0.27610000E+00  0.61224756E-02  0.61224756E-02  0.61224756E-02 -0.43103448E+03 -0.43103448E+03 -0.43103448E+03
  0.30120000E+00  0.69722761E-02  0.69722761E-02  0.69722761E-02 -0.43222004E+03 -0.43222004E+03 -0.43222004E+03
  0.32630000E+00  0.78595254E-02  0.78595254E-02  0.78595254E-02 -0.41379310E+03 -0.41379310E+03 -0.41379310E+03
  0.35140000E+00  0.87834801E-02  0.87834801E-02  0.87834801E-02 -0.39745628E+03 -0.39745628E+03 -0.39745628E+03
  0.37650000E+00  0.97449812E-02  0.97449812E-02  0.97449812E-02 -0.37821483E+03 -0.37821483E+03 -0.37821483E+03
  0.40160000E+00  0.10746666E-01  0.10746666E-01  0.10746666E-01 -0.35502959E+03 -0.35502959E+03 -0.35502959E+03
  0.42670000E+00  0.11792675E-01  0.11792675E-01  0.11792675E-01 -0.30503979E+03 -0.30503979E+03 -0.30503979E+03
  0.45180000E+00  0.12888667E-01  0.12888667E-01  0.12888667E-01 -0.27624309E+03 -0.27624309E+03 -0.27624309E+03
  0.47690000E+00  0.14041442E-01  0.14041442E-01  0.14041442E-01 -0.21992238E+03 -0.21992238E+03 -0.21992238E+03
  0.50200000E+00  0.15258498E-01  0.15258498E-01  0.15258498E-01 -0.16666667E+03 -0.16666667E+03 -0.16666667E+03
  0.52710000E+00  0.16547049E-01  0.16547049E-01  0.16547049E-01 -0.11611030E+03 -0.11611030E+03 -0.11611030E+03
  0.55220000E+00  0.17912633E-01  0.17912633E-01  0.17912633E-01 -0.43795620E+02 -0.43795620E+02 -0.43795620E+02
  0.57730000E+00  0.19356399E-01  0.19356399E-01  0.19356399E-01  0.15974441E+02  0.15974441E+02  0.15974441E+02
  0.60240000E+00  0.20871153E-01  0.20871153E-01  0.20871153E-01  0.90252708E+02  0.90252708E+02  0.90252708E+02
  0.62750000E+00  0.22436241E-01  0.22436241E-01  0.22436241E-01  0.18711019E+03  0.18711019E+03  0.18711019E+03
  0.65270000E+00  0.24011993E-01  0.24011993E-01  0.24011993E-01  0.26829268E+03  0.26829268E+03  0.26829268E+03
  0.67780000E+00  0.25537449E-01  0.25537449E-01  0.25537449E-01  0.38461538E+03  0.38461538E+03  0.38461538E+03
  0.70290000E+00  0.26936166E-01  0.26936166E-01  0.26936166E-01  0.52000000E+03  0.52000000E+03  0.52000000E+03
  0.72800000E+00  0.28134470E-01  0.28134470E-01  0.28134470E-01  0.63414634E+03  0.63414634E+03  0.63414634E+03
  0.75310000E+00  0.29088067E-01  0.29088067E-01  0.29088067E-01  0.78431373E+03  0.78431373E+03  0.78431373E+03
  0.77820000E+00  0.29803502E-01  0.29803502E-01  0.29803502E-01  0.99009901E+03  0.99009901E+03  0.99009901E+03
  0.80330000E+00  0.30339879E-01  0.30339879E-01  0.30339879E-01  0.12307692E+04  0.12307692E+04  0.12307692E+04
  0.82840000E+00  0.30788251E-01  0.30788251E-01  0.30788251E-01  0.15000000E+04  0.15000000E+04  0.15000000E+04
  0.85350000E+00  0.31244455E-01  0.31244455E-01  0.31244455E-01  0.23076923E+04  0.23076923E+04  0.23076923E+04
  0.87860000E+00  0.31789142E-01  0.31789142E-01  0.31789142E-01  0.25000000E+04  0.25000000E+04  0.25000000E+04
  0.90370000E+00  0.32482274E-01  0.32482274E-01  0.32482274E-01  0.00000000E+00  0.00000000E+00  0.00000000E+00
  0.92880000E+00  0.33366482E-01  0.33366482E-01  0.33366482E-01 -0.10000000E+05 -0.10000000E+05 -0.10000000E+05
  0.95390000E+00  0.34475620E-01  0.34475620E-01  0.34475620E-01 -0.40000000E+04 -0.40000000E+04 -0.40000000E+04
  0.97900000E+00  0.35842036E-01  0.35842036E-01  0.35842036E-01 -0.15384615E+04 -0.15384615E+04 -0.15384615E+04
  0.10041000E+01  0.37504027E-01  0.37504027E-01  0.37504027E-01 -0.10000000E+04 -0.10000000E+04 -0.10000000E+04
  0.10292000E+01  0.39511291E-01  0.39511291E-01  0.39511291E-01 -0.10000000E+04 -0.10000000E+04 -0.10000000E+04
  0.10543000E+01  0.41929515E-01  0.41929515E-01  0.41929515E-01 -0.38461538E+03 -0.38461538E+03 -0.38461538E+03
  0.10794000E+01  0.44843739E-01  0.44843739E-01  0.44843739E-01 -0.38461538E+03 -0.38461538E+03 -0.38461538E+03
  0.11045000E+01  0.48359361E-01  0.48359361E-01  0.48359361E-01  0.00000000E+00  0.00000000E+00  0.00000000E+00
  0.11296000E+01  0.52598985E-01  0.52598985E-01  0.52598985E-01  0.00000000E+00  0.00000000E+00  0.00000000E+00
  0.11547000E+01  0.57690765E-01  0.57690765E-01  0.57690765E-01  0.38461538E+03  0.38461538E+03  0.38461538E+03
  0.11798000E+01  0.63747345E-01  0.63747345E-01  0.63747345E-01  0.38461538E+03  0.38461538E+03  0.38461538E+03
  0.12049000E+01  0.70831417E-01  0.70831417E-01  0.70831417E-01  0.58823529E+03  0.58823529E+03  0.58823529E+03
  0.12300000E+01  0.78920808E-01  0.78920808E-01  0.78920808E-01  0.58823529E+03  0.58823529E+03  0.58823529E+03
  0.12551000E+01  0.87893238E-01  0.87893238E-01  0.87893238E-01  0.58823529E+03  0.58823529E+03  0.58823529E+03
  0.12802000E+01  0.97545725E-01  0.97545725E-01  0.97545725E-01  0.00000000E+00  0.00000000E+00  0.00000000E+00
  0.13053000E+01  0.10764964E+00  0.10764964E+00  0.10764964E+00  0.00000000E+00  0.00000000E+00  0.00000000E+00
  0.13304000E+01  0.11799597E+00  0.11799597E+00  0.11799597E+00  0.00000000E+00  0.00000000E+00  0.00000000E+00
  0.13555000E+01  0.12837760E+00  0.12837760E+00  0.12837760E+00  0.00000000E+00  0.00000000E+00  0.00000000E+00
  0.13806000E+01  0.13847886E+00  0.13847886E+00  0.13847886E+00 -0.38461538E+03 -0.38461538E+03 -0.38461538E+03
  0.14057000E+01  0.14768955E+00  0.14768955E+00  0.14768955E+00 -0.38461538E+03 -0.38461538E+03 -0.38461538E+03
  0.14308000E+01  0.15492844E+00  0.15492844E+00  0.15492844E+00 -0.38461538E+03 -0.38461538E+03 -0.38461538E+03
  0.14559000E+01  0.15863916E+00  0.15863916E+00  0.15863916E+00 -0.27027027E+03 -0.27027027E+03 -0.27027027E+03
  0.14810000E+01  0.15719696E+00  0.15719696E+00  0.15719696E+00 -0.27027027E+03 -0.27027027E+03 -0.27027027E+03
  0.15061000E+01  0.14976929E+00  0.14976929E+00  0.14976929E+00 -0.27027027E+03 -0.27027027E+03 -0.27027027E+03
  0.15312000E+01  0.13707199E+00  0.13707199E+00  0.13707199E+00 -0.20000000E+03 -0.20000000E+03 -0.20000000E+03
  0.15563000E+01  0.12127635E+00  0.12127635E+00  0.12127635E+00 -0.20000000E+03 -0.20000000E+03 -0.20000000E+03
  0.15814000E+01  0.10497172E+00  0.10497172E+00  0.10497172E+00  0.00000000E+00  0.00000000E+00  0.00000000E+00
  0.16065000E+01  0.90118493E-01  0.90118493E-01  0.90118493E-01  0.00000000E+00  0.00000000E+00  0.00000000E+00
  0.16316000E+01  0.77670459E-01  0.77670459E-01  0.77670459E-01  0.00000000E+00  0.00000000E+00  0.00000000E+00
  0.16567000E+01  0.67788215E-01  0.67788215E-01  0.67788215E-01  0.00000000E+00  0.00000000E+00  0.00000000E+00
  0.16818000E+01  0.60203361E-01  0.60203361E-01  0.60203361E-01  0.12195122E+03  0.12195122E+03  0.12195122E+03
  0.17069000E+01  0.54497584E-01  0.54497584E-01  0.54497584E-01  0.12195122E+03  0.12195122E+03  0.12195122E+03
  0.17320000E+01  0.50249200E-01  0.50249200E-01  0.50249200E-01  0.23529412E+03  0.23529412E+03  0.23529412E+03
  0.17571000E+01  0.47099790E-01  0.47099790E-01  0.47099790E-01  0.19230769E+03  0.19230769E+03  0.19230769E+03
  0.17822000E+01  0.44762484E-01  0.44762484E-01  0.44762484E-01  0.19230769E+03  0.19230769E+03  0.19230769E+03
  0.18073000E+01  0.43014922E-01  0.43014922E-01  0.43014922E-01  0.27522936E+03  0.27522936E+03  0.27522936E+03
  0.18324000E+01  0.41694620E-01  0.41694620E-01  0.41694620E-01  0.27522936E+03  0.27522936E+03  0.27522936E+03
  0.18575000E+01  0.40672919E-01  0.40672919E-01  0.40672919E-01  0.27522936E+03  0.27522936E+03  0.27522936E+03
  0.18826000E+01  0.39856822E-01  0.39856822E-01  0.39856822E-01  0.34482759E+03  0.34482759E+03  0.34482759E+03
  0.19077000E+01  0.39171473E-01  0.39171473E-01  0.39171473E-01  0.34482759E+03  0.34482759E+03  0.34482759E+03
  0.19329000E+01  0.38557113E-01  0.38557113E-01  0.38557113E-01  0.34482759E+03  0.34482759E+03  0.34482759E+03
  0.19580000E+01  0.37967589E-01  0.37967589E-01  0.37967589E-01  0.29197080E+03  0.29197080E+03  0.29197080E+03
  0.19831000E+01  0.37366592E-01  0.37366592E-01  0.37366592E-01  0.29197080E+03  0.29197080E+03  0.29197080E+03
  0.20082000E+01  0.36732885E-01  0.36732885E-01  0.36732885E-01  0.29585799E+03  0.29585799E+03  0.29585799E+03
  0.20333000E+01  0.36059078E-01  0.36059078E-01  0.36059078E-01  0.29585799E+03  0.29585799E+03  0.29585799E+03
  0.20584000E+01  0.35356063E-01  0.35356063E-01  0.35356063E-01  0.29268293E+03  0.29268293E+03  0.29268293E+03
  0.20835000E+01  0.34651643E-01  0.34651643E-01  0.34651643E-01  0.28571429E+03  0.28571429E+03  0.28571429E+03
  0.21086000E+01  0.33984741E-01  0.33984741E-01  0.33984741E-01  0.30769231E+03  0.30769231E+03  0.30769231E+03
  0.21337000E+01  0.33401149E-01  0.33401149E-01  0.33401149E-01  0.33783784E+03  0.33783784E+03  0.33783784E+03
  0.21588000E+01  0.32944119E-01  0.32944119E-01  0.32944119E-01  0.31791908E+03  0.31791908E+03  0.31791908E+03
  0.21839000E+01  0.32648584E-01  0.32648584E-01  0.32648584E-01  0.35616438E+03  0.35616438E+03  0.35616438E+03
  0.22090000E+01  0.32536211E-01  0.32536211E-01  0.32536211E-01  0.35629454E+03  0.35629454E+03  0.35629454E+03
  0.22341000E+01  0.32613788E-01  0.32613788E-01  0.32613788E-01  0.39260970E+03  0.39260970E+03  0.39260970E+03
  0.22592000E+01  0.32875634E-01  0.32875634E-01  0.32875634E-01  0.40449438E+03  0.40449438E+03  0.40449438E+03
  0.22843000E+01  0.33304690E-01  0.33304690E-01  0.33304690E-01  0.42986425E+03  0.42986425E+03  0.42986425E+03
  0.23094000E+01  0.33874185E-01  0.33874185E-01  0.33874185E-01  0.44543430E+03  0.44543430E+03  0.44543430E+03
  0.23345000E+01  0.34551618E-01  0.34551618E-01  0.34551618E-01  0.47058824E+03  0.47058824E+03  0.47058824E+03
  0.23596000E+01  0.35296514E-01  0.35296514E-01  0.35296514E-01  0.51351351E+03  0.51351351E+03  0.51351351E+03
  0.23847000E+01  0.36062378E-01  0.36062378E-01  0.36062378E-01  0.55384615E+03  0.55384615E+03  0.55384615E+03
  0.24098000E+01  0.36797148E-01  0.36797148E-01  0.36797148E-01  0.62500000E+03  0.62500000E+03  0.62500000E+03
  0.24349000E+01  0.37445842E-01  0.37445842E-01  0.37445842E-01  0.66666667E+03  0.66666667E+03  0.66666667E+03
  0.24600000E+01  0.37954423E-01  0.37954423E-01  0.37954423E-01  0.71065990E+03  0.71065990E+03  0.71065990E+03
  0.24851000E+01  0.38278112E-01  0.38278112E-01  0.38278112E-01  0.75144509E+03  0.75144509E+03  0.75144509E+03
  0.25102000E+01  0.38394035E-01  0.38394035E-01  0.38394035E-01  0.70270270E+03  0.70270270E+03  0.70270270E+03
  0.25353000E+01  0.38307689E-01  0.38307689E-01  0.38307689E-01  0.63348416E+03  0.63348416E+03  0.63348416E+03
  0.25604000E+01  0.38059550E-01  0.38059550E-01  0.38059550E-01  0.57471264E+03  0.57471264E+03  0.57471264E+03
  0.25855000E+01  0.37716381E-01  0.37716381E-01  0.37716381E-01  0.48257373E+03  0.48257373E+03  0.48257373E+03
  0.26106000E+01  0.37358099E-01  0.37358099E-01  0.37358099E-01  0.44543430E+03  0.44543430E+03  0.44543430E+03
  0.26357000E+01  0.37061347E-01  0.37061347E-01  0.37061347E-01  0.41516245E+03  0.41516245E+03  0.41516245E+03
  0.26608000E+01  0.36885298E-01  0.36885298E-01  0.36885298E-01  0.37956204E+03  0.37956204E+03  0.37956204E+03
  0.26859000E+01  0.36866841E-01  0.36866841E-01  0.36866841E-01  0.35714286E+03  0.35714286E+03  0.35714286E+03
  0.27110000E+01  0.37021975E-01  0.37021975E-01  0.37021975E-01  0.34117647E+03  0.34117647E+03  0.34117647E+03
  0.27361000E+01  0.37350779E-01  0.37350779E-01  0.37350779E-01  0.32584270E+03  0.32584270E+03  0.32584270E+03
  0.27612000E+01  0.37843161E-01  0.37843161E-01  0.37843161E-01  0.30939227E+03  0.30939227E+03  0.30939227E+03
  0.27863000E+01  0.38483281E-01  0.38483281E-01  0.38483281E-01  0.29189189E+03  0.29189189E+03  0.29189189E+03
  0.28114000E+01  0.39252438E-01  0.39252438E-01  0.39252438E-01  0.27745665E+03  0.27745665E+03  0.27745665E+03
  0.28365000E+01  0.40130439E-01  0.40130439E-01  0.40130439E-01  0.26184539E+03  0.26184539E+03  0.26184539E+03
  0.28616000E+01  0.41094884E-01  0.41094884E-01  0.41094884E-01  0.24861878E+03  0.24861878E+03  0.24861878E+03
  0.28867000E+01  0.42120994E-01  0.42120994E-01  0.42120994E-01  0.22522523E+03  0.22522523E+03  0.22522523E+03
  0.29118000E+01  0.43180666E-01  0.43180666E-01  0.43180666E-01  0.22847100E+03  0.22847100E+03  0.22847100E+03
  0.29369000E+01  0.44241162E-01  0.44241162E-01  0.44241162E-01  0.20000000E+03  0.20000000E+03  0.20000000E+03
  0.29620000E+01  0.45267380E-01  0.45267380E-01  0.45267380E-01  0.22222222E+03  0.22222222E+03  0.22222222E+03
  0.29871000E+01  0.46223287E-01  0.46223287E-01  0.46223287E-01  0.22662890E+03  0.22662890E+03  0.22662890E+03
  0.30122000E+01  0.47077932E-01  0.47077932E-01  0.47077932E-01  0.22950820E+03  0.22950820E+03  0.22950820E+03
  0.30373000E+01  0.47810680E-01  0.47810680E-01  0.47810680E-01  0.25547445E+03  0.25547445E+03  0.25547445E+03
  0.30624000E+01  0.48416495E-01  0.48416495E-01  0.48416495E-01  0.30769231E+03  0.30769231E+03  0.30769231E+03
  0.30875000E+01  0.48907889E-01  0.48907889E-01  0.48907889E-01  0.30769231E+03  0.30769231E+03  0.30769231E+03
  0.31126000E+01  0.49313878E-01  0.49313878E-01  0.49313878E-01  0.29411765E+03  0.29411765E+03  0.29411765E+03
  0.31377000E+01  0.49674822E-01  0.49674822E-01  0.49674822E-01  0.26706231E+03  0.26706231E+03  0.26706231E+03
  0.31628000E+01  0.50034514E-01  0.50034514E-01  0.50034514E-01  0.24324324E+03  0.24324324E+03  0.24324324E+03
  0.31879000E+01  0.50436202E-01  0.50436202E-01  0.50436202E-01  0.18823529E+03  0.18823529E+03  0.18823529E+03
  0.32131000E+01  0.50916856E-01  0.50916856E-01  0.50916856E-01  0.15590200E+03  0.15590200E+03  0.15590200E+03
  0.32382000E+01  0.51506023E-01  0.51506023E-01  0.51506023E-01  0.10729614E+03  0.10729614E+03  0.10729614E+03
  0.32633000E+01  0.52225725E-01  0.52225725E-01  0.52225725E-01  0.66666667E+02  0.66666667E+02  0.66666667E+02
  0.32884000E+01  0.53089139E-01  0.53089139E-01  0.53089139E-01  0.22624434E+02  0.22624434E+02  0.22624434E+02
  0.33135000E+01  0.54101833E-01  0.54101833E-01  0.54101833E-01 -0.22624434E+02 -0.22624434E+02 -0.22624434E+02
  0.33386000E+01  0.55260073E-01  0.55260073E-01  0.55260073E-01 -0.73349633E+02 -0.73349633E+02 -0.73349633E+02
  0.33637000E+01  0.56551244E-01  0.56551244E-01  0.56551244E-01 -0.14326648E+03 -0.14326648E+03 -0.14326648E+03
  0.33888000E+01  0.57951756E-01  0.57951756E-01  0.57951756E-01 -0.18461538E+03 -0.18461538E+03 -0.18461538E+03
  0.34139000E+01  0.59429386E-01  0.59429386E-01  0.59429386E-01 -0.22988506E+03 -0.22988506E+03 -0.22988506E+03
  0.34390000E+01  0.60945465E-01  0.60945465E-01  0.60945465E-01 -0.28571429E+03 -0.28571429E+03 -0.28571429E+03
  0.34641000E+01  0.62458905E-01  0.62458905E-01  0.62458905E-01 -0.32110092E+03 -0.32110092E+03 -0.32110092E+03
  0.34892000E+01  0.63935564E-01  0.63935564E-01  0.63935564E-01 -0.36269430E+03 -0.36269430E+03 -0.36269430E+03
  0.35143000E+01  0.65351483E-01  0.65351483E-01  0.65351483E-01 -0.38216561E+03 -0.38216561E+03 -0.38216561E+03
  0.35394000E+01  0.66699790E-01  0.66699790E-01  0.66699790E-01 -0.44117647E+03 -0.44117647E+03 -0.44117647E+03
  0.35645000E+01  0.67989660E-01  0.67989660E-01  0.67989660E-01 -0.44117647E+03 -0.44117647E+03 -0.44117647E+03
  0.35896000E+01  0.69243040E-01  0.69243040E-01  0.69243040E-01 -0.51282051E+03 -0.51282051E+03 -0.51282051E+03
  0.36147000E+01  0.70489314E-01  0.70489314E-01  0.70489314E-01 -0.51282051E+03 -0.51282051E+03 -0.51282051E+03
  0.36398000E+01  0.71758319E-01  0.71758319E-01  0.71758319E-01 -0.51282051E+03 -0.51282051E+03 -0.51282051E+03
  0.36649000E+01  0.73076264E-01  0.73076264E-01  0.73076264E-01 -0.60000000E+03 -0.60000000E+03 -0.60000000E+03
  0.36900000E+01  0.74458302E-01  0.74458302E-01  0.74458302E-01 -0.60000000E+03 -0.60000000E+03 -0.60000000E+03
  0.37151000E+01  0.75906310E-01  0.75906310E-01  0.75906310E-01 -0.70588235E+03 -0.70588235E+03 -0.70588235E+03
  0.37402000E+01  0.77407180E-01  0.77407180E-01  0.77407180E-01 -0.70588235E+03 -0.70588235E+03 -0.70588235E+03
  0.37653000E+01  0.78932927E-01  0.78932927E-01  0.78932927E-01 -0.81967213E+03 -0.81967213E+03 -0.81967213E+03
  0.37904000E+01  0.80438297E-01  0.80438297E-01  0.80438297E-01 -0.81967213E+03 -0.81967213E+03 -0.81967213E+03
  0.38155000E+01  0.81869049E-01  0.81869049E-01  0.81869049E-01 -0.81967213E+03 -0.81967213E+03 -0.81967213E+03
  0.38406000E+01  0.83168748E-01  0.83168748E-01  0.83168748E-01 -0.76923077E+03 -0.76923077E+03 -0.76923077E+03
  0.38657000E+01  0.84284632E-01  0.84284632E-01  0.84284632E-01 -0.76923077E+03 -0.76923077E+03 -0.76923077E+03
  0.38908000E+01  0.85178252E-01  0.85178252E-01  0.85178252E-01 -0.76923077E+03 -0.76923077E+03 -0.76923077E+03
  0.39159000E+01  0.85833800E-01  0.85833800E-01  0.85833800E-01 -0.76923077E+03 -0.76923077E+03 -0.76923077E+03
  0.39410000E+01  0.86259181E-01  0.86259181E-01  0.86259181E-01 -0.76923077E+03 -0.76923077E+03 -0.76923077E+03
  0.39661000E+01  0.86482782E-01  0.86482782E-01  0.86482782E-01 -0.61538462E+03 -0.61538462E+03 -0.61538462E+03
  0.39912000E+01  0.86551834E-01  0.86551834E-01  0.86551834E-01 -0.61538462E+03 -0.61538462E+03 -0.61538462E+03
  0.40163000E+01  0.86521834E-01  0.86521834E-01  0.86521834E-01 -0.67567568E+03 -0.67567568E+03 -0.67567568E+03
  0.40414000E+01  0.86453046E-01  0.86453046E-01  0.86453046E-01 -0.67567568E+03 -0.67567568E+03 -0.67567568E+03
  0.40665000E+01  0.86401634E-01  0.86401634E-01  0.86401634E-01 -0.67567568E+03 -0.67567568E+03 -0.67567568E+03
  0.40916000E+01  0.86424154E-01  0.86424154E-01  0.86424154E-01 -0.70588235E+03 -0.70588235E+03 -0.70588235E+03
  0.41167000E+01  0.86567983E-01  0.86567983E-01  0.86567983E-01 -0.83333333E+03 -0.83333333E+03 -0.83333333E+03
  0.41418000E+01  0.86877261E-01  0.86877261E-01  0.86877261E-01 -0.82352941E+03 -0.82352941E+03 -0.82352941E+03
  0.41669000E+01  0.87389879E-01  0.87389879E-01  0.87389879E-01 -0.82352941E+03 -0.82352941E+03 -0.82352941E+03
  0.41920000E+01  0.88138801E-01  0.88138801E-01  0.88138801E-01 -0.94594595E+03 -0.94594595E+03 -0.94594595E+03
  0.42171000E+01  0.89153848E-01  0.89153848E-01  0.89153848E-01 -0.94594595E+03 -0.94594595E+03 -0.94594595E+03
  0.42422000E+01  0.90452979E-01  0.90452979E-01  0.90452979E-01 -0.10769231E+04 -0.10769231E+04 -0.10769231E+04
  0.42673000E+01  0.92051580E-01  0.92051580E-01  0.92051580E-01 -0.10958904E+04 -0.10958904E+04 -0.10958904E+04
  0.42924000E+01  0.93953117E-01  0.93953117E-01  0.93953117E-01 -0.10958904E+04 -0.10958904E+04 -0.10958904E+04
  0.43175000E+01  0.96148048E-01  0.96148048E-01  0.96148048E-01 -0.13207547E+04 -0.13207547E+04 -0.13207547E+04
  0.43426000E+01  0.98618260E-01  0.98618260E-01  0.98618260E-01 -0.13207547E+04 -0.13207547E+04 -0.13207547E+04
  0.43677000E+01  0.10133304E+00  0.10133304E+00  0.10133304E+00 -0.14000000E+04 -0.14000000E+04 -0.14000000E+04
  0.43928000E+01  0.10425101E+00  0.10425101E+00  0.10425101E+00 -0.14000000E+04 -0.14000000E+04 -0.14000000E+04
