#  frequency dependent      REAL DIELECTRIC FUNCTION (independent particle, no local field effects)
#     E(ev)      X         Y         Z        XY        YZ        ZX
#  --------------------------------------------------------------------------------------
    0.000000   49.231691   49.231691   49.231691   -0.001356   -0.001356   -0.001356
    0.025102   49.331186   49.331186   49.331186   -0.001361   -0.001361   -0.001361
    0.050204   49.622302   49.622302   49.622302   -0.001376   -0.001376   -0.001376
    0.075306   50.082960   50.082960   50.082960   -0.001396   -0.001396   -0.001396
    0.100408   50.676454   50.676454   50.676454   -0.001416   -0.001416   -0.001416
    0.125510   51.351923   51.351923   51.351923   -0.001427   -0.001427   -0.001427
    0.150612   52.045970   52.045970   52.045970   -0.001420   -0.001420   -0.001420
    0.175714   52.685327   52.685327   52.685327   -0.001385   -0.001385   -0.001385
    0.200816   53.191004   53.191004   53.191004   -0.001313   -0.001313   -0.001313
    0.225918   53.483290   53.483290   53.483290   -0.001195   -0.001195   -0.001195
    0.251020   53.487472   53.487472   53.487472   -0.001024   -0.001024   -0.001024
    0.276122   53.138646   53.138646   53.138646   -0.000797   -0.000797   -0.000797
    0.301224   52.386003   52.386003   52.386003   -0.000514   -0.000514   -0.000514
    0.326325   51.195373   51.195373   51.195373   -0.000177   -0.000177   -0.000177
    0.351427   49.550796   49.550796   49.550796    0.000205    0.000205    0.000205
    0.376529   47.455256   47.455256   47.455256    0.000618    0.000618    0.000618
    0.401631   44.931425   44.931425   44.931425    0.001044    0.001044    0.001044
    0.426733   42.022511   42.022511   42.022511    0.001461    0.001461    0.001461
    0.451835   38.793525   38.793525   38.793525    0.001843    0.001843    0.001843
    0.476937   35.331505   35.331505   35.331505    0.002165    0.002165    0.002165
    0.502039   31.744138   31.744138   31.744138    0.002403    0.002403    0.002403
    0.527141   28.155206   28.155206   28.155206    0.002539    0.002539    0.002539
    0.552243   24.696338   24.696338   24.696338    0.002563    0.002563    0.002563
    0.577345   21.495420   21.495420   21.495420    0.002474    0.002474    0.002474
    0.602447   18.663115   18.663115   18.663115    0.002283    0.002283    0.002283
    0.627549   16.279501   16.279501   16.279501    0.002008    0.002008    0.002008
    0.652651   14.383611   14.383611   14.383611    0.001674    0.001674    0.001674
    0.677753   12.967798   12.967798   12.967798    0.001311    0.001311    0.001311
    0.702855   11.978396   11.978396   11.978396    0.000948    0.000948    0.000948
    0.727957   11.322567   11.322567   11.322567    0.000611    0.000611    0.000611
    0.753059   10.880437   10.880437   10.880437    0.000321    0.000321    0.000321
    0.778161   10.520424   10.520424   10.520424    0.000092    0.000092    0.000092
    0.803263   10.115617   10.115617   10.115617   -0.000067   -0.000067   -0.000067
    0.828365    9.558923    9.558923    9.558923   -0.000157   -0.000157   -0.000157
    0.853467    8.774991    8.774991    8.774991   -0.000181   -0.000181   -0.000181
    0.878569    7.727856    7.727856    7.727856   -0.000150   -0.000150   -0.000150
    0.903671    6.423455    6.423455    6.423455   -0.000077   -0.000077   -0.000077
    0.928773    4.906962    4.906962    4.906962    0.000024    0.000024    0.000024
    0.953875    3.255484    3.255484    3.255484    0.000138    0.000138    0.000138
    0.978976    1.567066    1.567066    1.567066    0.000252    0.000252    0.000252
    1.004078   -0.052512   -0.052512   -0.052512    0.000354    0.000354    0.000354
    1.029180   -1.503368   -1.503368   -1.503368    0.000437    0.000437    0.000437
    1.054282   -2.703699   -2.703699   -2.703699    0.000494    0.000494    0.000494
    1.079384   -3.598817   -3.598817   -3.598817    0.000526    0.000526    0.000526
    1.104486   -4.165724   -4.165724   -4.165724    0.000535    0.000535    0.000535
    1.129588   -4.412941   -4.412941   -4.412941    0.000524    0.000524    0.000524
    1.154690   -4.375732   -4.375732   -4.375732    0.000501    0.000501    0.000501
    1.179792   -4.108038   -4.108038   -4.108038    0.000472    0.000472    0.000472
    1.204894   -3.672768   -3.672768   -3.672768    0.000443    0.000443    0.000443
    1.229996   -3.132200   -3.132200   -3.132200    0.000419    0.000419    0.000419
    1.255098   -2.540208   -2.540208   -2.540208    0.000404    0.000404    0.000404
    1.280200   -1.937253   -1.937253   -1.937253    0.000400    0.000400    0.000400
    1.305302   -1.348556   -1.348556   -1.348556    0.000406    0.000406    0.000406
    1.330404   -0.785119   -0.785119   -0.785119    0.000421    0.000421    0.000421
    1.355506   -0.246709   -0.246709   -0.246709    0.000443    0.000443    0.000443
    1.380608    0.274092    0.274092    0.274092    0.000470    0.000470    0.000470
    1.405710    0.787945    0.787945    0.787945    0.000501    0.000501    0.000501
    1.430812    1.305419    1.305419    1.305419    0.000534    0.000534    0.000534
    1.455914    1.834831    1.834831    1.834831    0.000568    0.000568    0.000568
    1.481016    2.381098    2.381098    2.381098    0.000604    0.000604    0.000604
    1.506118    2.945547    2.945547    2.945547    0.000641    0.000641    0.000641
    1.531220    3.526245    3.526245    3.526245    0.000680    0.000680    0.000680
    1.556322    4.118643    4.118643    4.118643    0.000720    0.000720    0.000720
    1.581424    4.716284    4.716284    4.716284    0.000760    0.000760    0.000760
    1.606526    5.311500    5.311500    5.311500    0.000800    0.000800    0.000800
    1.631627    5.896092    5.896092    5.896092    0.000837    0.000837    0.000837
    1.656729    6.461993    6.461993    6.461993    0.000871    0.000871    0.000871
    1.681831    7.001893    7.001893    7.001893    0.000900    0.000900    0.000900
    1.706933    7.509808    7.509808    7.509808    0.000924    0.000924    0.000924
    1.732035    7.981482    7.981482    7.981482    0.000942    0.000942    0.000942
    1.757137    8.414602    8.414602    8.414602    0.000955    0.000955    0.000955
    1.782239    8.808746    8.808746    8.808746    0.000964    0.000964    0.000964
    1.807341    9.165180    9.165180    9.165180    0.000971    0.000971    0.000971
    1.832443    9.486530    9.486530    9.486530    0.000976    0.000976    0.000976
    1.857545    9.776504    9.776504    9.776504    0.000983    0.000983    0.000983
    1.882647   10.039658   10.039658   10.039658    0.000992    0.000992    0.000992
    1.907749   10.281305   10.281305   10.281305    0.001007    0.001007    0.001007
    1.932851   10.507555   10.507555   10.507555    0.001030    0.001030    0.001030
    1.957953   10.725167   10.725167   10.725167    0.001063    0.001063    0.001063
    1.983055   10.941351   10.941351   10.941351    0.001106    0.001106    0.001106
    2.008157   11.163235   11.163235   11.163235    0.001159    0.001159    0.001159
    2.033259   11.397107   11.397107   11.397107    0.001220    0.001220    0.001220
    2.058361   11.647454   11.647454   11.647454    0.001286    0.001286    0.001286
    2.083463   11.916011   11.916011   11.916011    0.001351    0.001351    0.001351
    2.108565   12.201002   12.201002   12.201002    0.001406    0.001406    0.001406
    2.133667   12.496738   12.496738   12.496738    0.001444    0.001444    0.001444
    2.158769   12.793702   12.793702   12.793702    0.001453    0.001453    0.001453
    2.183871   13.079213   13.079213   13.079213    0.001425    0.001425    0.001425
    2.208973   13.338548   13.338548   13.338548    0.001354    0.001354    0.001354
    2.234075   13.556537   13.556537   13.556537    0.001236    0.001236    0.001236
    2.259177   13.719521   13.719521   13.719521    0.001076    0.001076    0.001076
    2.284278   13.817235   13.817235   13.817235    0.000880    0.000880    0.000880
    2.309380   13.844766   13.844766   13.844766    0.000666    0.000666    0.000666
    2.334482   13.803886   13.803886   13.803886    0.000453    0.000453    0.000453
    2.359584   13.703807   13.703807   13.703807    0.000264    0.000264    0.000264
    2.384686   13.560809   13.560809   13.560809    0.000121    0.000121    0.000121
    2.409788   13.396750   13.396750   13.396750    0.000041    0.000041    0.000041
    2.434890   13.236486   13.236486   13.236486    0.000031    0.000031    0.000031
    2.459992   13.104346   13.104346   13.104346    0.000091    0.000091    0.000091
    2.485094   13.020480   13.020480   13.020480    0.000205    0.000205    0.000205
    2.510196   12.997246   12.997246   12.997246    0.000352    0.000352    0.000352
    2.535298   13.036675   13.036675   13.036675    0.000501    0.000501    0.000501
    2.560400   13.129318   13.129318   13.129318    0.000619    0.000619    0.000619
    2.585502   13.254749   13.254749   13.254749    0.000677    0.000677    0.000677
    2.610604   13.383782   13.383782   13.383782    0.000652    0.000652    0.000652
    2.635706   13.481977   13.481977   13.481977    0.000534    0.000534    0.000534
    2.660808   13.513997   13.513997   13.513997    0.000323    0.000323    0.000323
    2.685910   13.448107   13.448107   13.448107    0.000031    0.000031    0.000031
    2.711012   13.260215   13.260215   13.260215   -0.000320   -0.000320   -0.000320
    2.736114   12.936894   12.936894   12.936894   -0.000698   -0.000698   -0.000698
    2.761216   12.477000   12.477000   12.477000   -0.001074   -0.001074   -0.001074
    2.786318   11.891799   11.891799   11.891799   -0.001417   -0.001417   -0.001417
    2.811420   11.203489   11.203489   11.203489   -0.001702   -0.001702   -0.001702
    2.836522   10.442510   10.442510   10.442510   -0.001910   -0.001910   -0.001910
    2.861624    9.643926    9.643926    9.643926   -0.002035   -0.002035   -0.002035
    2.886726    8.843290    8.843290    8.843290   -0.002077   -0.002077   -0.002077
    2.911828    8.072643    8.072643    8.072643   -0.002045   -0.002045   -0.002045
    2.936929    7.356963    7.356963    7.356963   -0.001957   -0.001957   -0.001957
    2.962031    6.711642    6.711642    6.711642   -0.001835   -0.001835   -0.001835
    2.987133    6.141159    6.141159    6.141159   -0.001701   -0.001701   -0.001701
    3.012235    5.639213    5.639213    5.639213   -0.001579   -0.001579   -0.001579
    3.037337    5.190223    5.190223    5.190223   -0.001488   -0.001488   -0.001488
    3.062439    4.772081    4.772081    4.772081   -0.001442   -0.001442   -0.001442
    3.087541    4.359697    4.359697    4.359697   -0.001448   -0.001448   -0.001448
    3.112643    3.928944    3.928944    3.928944   -0.001504   -0.001504   -0.001504
    3.137745    3.460406    3.460406    3.460406   -0.001601   -0.001601   -0.001601
    3.162847    2.942392    2.942392    2.942392   -0.001726   -0.001726   -0.001726
    3.187949    2.372741    2.372741    2.372741   -0.001858   -0.001858   -0.001858
    3.213051    1.759184    1.759184    1.759184   -0.001979   -0.001979   -0.001979
    3.238153    1.118147    1.118147    1.118147   -0.002070   -0.002070   -0.002070
    3.263255    0.472245    0.472245    0.472245   -0.002117   -0.002117   -0.002117
    3.288357   -0.153144   -0.153144   -0.153144   -0.002114   -0.002114   -0.002114
    3.313459   -0.733617   -0.733617   -0.733617   -0.002060   -0.002060   -0.002060
    3.338561   -1.249150   -1.249150   -1.249150   -0.001962   -0.001962   -0.001962
    3.363663   -1.686650   -1.686650   -1.686650   -0.001831   -0.001831   -0.001831
    3.388765   -2.041180   -2.041180   -2.041180   -0.001683   -0.001683   -0.001683
    3.413867   -2.315826   -2.315826   -2.315826   -0.001531   -0.001531   -0.001531
    3.438969   -2.520312   -2.520312   -2.520312   -0.001390   -0.001390   -0.001390
    3.464071   -2.668696   -2.668696   -2.668696   -0.001267   -0.001267   -0.001267
    3.489173   -2.776728   -2.776728   -2.776728   -0.001167   -0.001167   -0.001167
    3.514275   -2.859280   -2.859280   -2.859280   -0.001089   -0.001089   -0.001089
    3.539377   -2.928360   -2.928360   -2.928360   -0.001030   -0.001030   -0.001030
    3.564479   -2.991913   -2.991913   -2.991913   -0.000983   -0.000983   -0.000983
    3.589580   -3.053523   -3.053523   -3.053523   -0.000944   -0.000944   -0.000944
    3.614682   -3.112854   -3.112854   -3.112854   -0.000905   -0.000905   -0.000905
    3.639784   -3.166712   -3.166712   -3.166712   -0.000864   -0.000864   -0.000864
    3.664886   -3.210364   -3.210364   -3.210364   -0.000819   -0.000819   -0.000819
    3.689988   -3.238922   -3.238922   -3.238922   -0.000771   -0.000771   -0.000771
    3.715090   -3.248536   -3.248536   -3.248536   -0.000722   -0.000722   -0.000722
    3.740192   -3.237271   -3.237271   -3.237271   -0.000675   -0.000675   -0.000675
    3.765294   -3.205592   -3.205592   -3.205592   -0.000634   -0.000634   -0.000634
    3.790396   -3.156481   -3.156481   -3.156481   -0.000602   -0.000602   -0.000602
    3.815498   -3.095178   -3.095178   -3.095178   -0.000581   -0.000581   -0.000581
    3.840600   -3.028657   -3.028657   -3.028657   -0.000572   -0.000572   -0.000572
    3.865702   -2.964941   -2.964941   -2.964941   -0.000575   -0.000575   -0.000575
    3.890804   -2.912253   -2.912253   -2.912253   -0.000588   -0.000588   -0.000588
    3.915906   -2.878216   -2.878216   -2.878216   -0.000608   -0.000608   -0.000608
    3.941008   -2.869133   -2.869133   -2.869133   -0.000630   -0.000630   -0.000630
    3.966110   -2.889376   -2.889376   -2.889376   -0.000652   -0.000652   -0.000652
    3.991212   -2.941032   -2.941032   -2.941032   -0.000670   -0.000670   -0.000670
    4.016314   -3.023705   -3.023705   -3.023705   -0.000680   -0.000680   -0.000680
    4.041416   -3.134528   -3.134528   -3.134528   -0.000681   -0.000681   -0.000681
    4.066518   -3.268391   -3.268391   -3.268391   -0.000673   -0.000673   -0.000673
    4.091620   -3.418267   -3.418267   -3.418267   -0.000655   -0.000655   -0.000655
    4.116722   -3.575741   -3.575741   -3.575741   -0.000628   -0.000628   -0.000628
    4.141824   -3.731614   -3.731614   -3.731614   -0.000594   -0.000594   -0.000594
    4.166926   -3.876617   -3.876617   -3.876617   -0.000553   -0.000553   -0.000553
    4.192028   -4.002178   -4.002178   -4.002178   -0.000507   -0.000507   -0.000507
    4.217130   -4.101143   -4.101143   -4.101143   -0.000456   -0.000456   -0.000456
    4.242231   -4.168350   -4.168350   -4.168350   -0.000401   -0.000401   -0.000401
    4.267333   -4.200961   -4.200961   -4.200961   -0.000343   -0.000343   -0.000343
    4.292435   -4.198549   -4.198549   -4.198549   -0.000282   -0.000282   -0.000282
    4.317537   -4.162794   -4.162794   -4.162794   -0.000220   -0.000220   -0.000220
    4.342639   -4.097032   -4.097032   -4.097032   -0.000159   -0.000159   -0.000159
    4.367741   -4.005619   -4.005619   -4.005619   -0.000102   -0.000102   -0.000102
    4.392843   -3.893335   -3.893335   -3.893335   -0.000051   -0.000051   -0.000051
    4.417945   -3.764939   -3.764939   -3.764939   -0.000009   -0.000009   -0.000009
    4.443047   -3.624939   -3.624939   -3.624939    0.000022    0.000022    0.000022
    4.468149   -3.477564   -3.477564   -3.477564    0.000039    0.000039    0.000039
    4.493251   -3.326949   -3.326949   -3.326949    0.000042    0.000042    0.000042
    4.518353   -3.177282   -3.177282   -3.177282    0.000032    0.000032    0.000032
    4.543455   -3.032969   -3.032969   -3.032969    0.000009    0.000009    0.000009
    4.568557   -2.898589   -2.898589   -2.898589   -0.000024   -0.000024   -0.000024
    4.593659   -2.778702   -2.778702   -2.778702   -0.000064   -0.000064   -0.000064
    4.618761   -2.677508   -2.677508   -2.677508   -0.000107   -0.000107   -0.000107
    4.643863   -2.598450   -2.598450   -2.598450   -0.000149   -0.000149   -0.000149
    4.668965   -2.543906   -2.543906   -2.543906   -0.000189   -0.000189   -0.000189
    4.694067   -2.514985   -2.514985   -2.514985   -0.000223   -0.000223   -0.000223
    4.719169   -2.511545   -2.511545   -2.511545   -0.000251   -0.000251   -0.000251
    4.744271   -2.532378   -2.532378   -2.532378   -0.000271   -0.000271   -0.000271
    4.769373   -2.575490   -2.575490   -2.575490   -0.000284   -0.000284   -0.000284
    4.794475   -2.638397   -2.638397   -2.638397   -0.000290   -0.000290   -0.000290
    4.819577   -2.718301   -2.718301   -2.718301   -0.000290   -0.000290   -0.000290
    4.844679   -2.812207   -2.812207   -2.812207   -0.000285   -0.000285   -0.000285
    4.869781   -2.916826   -2.916826   -2.916826   -0.000275   -0.000275   -0.000275
    4.894882   -3.028451   -3.028451   -3.028451   -0.000261   -0.000261   -0.000261
    4.919984   -3.142851   -3.142851   -3.142851   -0.000243   -0.000243   -0.000243
    4.945086   -3.255260   -3.255260   -3.255260   -0.000221   -0.000221   -0.000221
    4.970188   -3.360528   -3.360528   -3.360528   -0.000195   -0.000195   -0.000195
    4.995290   -3.453455   -3.453455   -3.453455   -0.000165   -0.000165   -0.000165
    5.020392   -3.529270   -3.529270   -3.529270   -0.000133   -0.000133   -0.000133
    5.045494   -3.584166   -3.584166   -3.584166   -0.000097   -0.000097   -0.000097
    5.070596   -3.615745   -3.615745   -3.615745   -0.000060   -0.000060   -0.000060
    5.095698   -3.623377   -3.623377   -3.623377   -0.000022   -0.000022   -0.000022
    5.120800   -3.608255   -3.608255   -3.608255    0.000018    0.000018    0.000018
    5.145902   -3.573227   -3.573227   -3.573227    0.000057    0.000057    0.000057
    5.171004   -3.522385   -3.522385   -3.522385    0.000095    0.000095    0.000095
    5.196106   -3.460421   -3.460421   -3.460421    0.000130    0.000130    0.000130
    5.221208   -3.391937   -3.391937   -3.391937    0.000163    0.000163    0.000163
    5.246310   -3.320766   -3.320766   -3.320766    0.000192    0.000192    0.000192
    5.271412   -3.249405   -3.249405   -3.249405    0.000216    0.000216    0.000216
    5.296514   -3.178734   -3.178734   -3.178734    0.000234    0.000234    0.000234
    5.321616   -3.107956   -3.107956   -3.107956    0.000246    0.000246    0.000246
    5.346718   -3.034925   -3.034925   -3.034925    0.000252    0.000252    0.000252
    5.371820   -2.956623   -2.956623   -2.956623    0.000252    0.000252    0.000252
    5.396922   -2.869919   -2.869919   -2.869919    0.000246    0.000246    0.000246
    5.422024   -2.772295   -2.772295   -2.772295    0.000236    0.000236    0.000236
    5.447126   -2.662549   -2.662549   -2.662549    0.000221    0.000221    0.000221
    5.472228   -2.541260   -2.541260   -2.541260    0.000203    0.000203    0.000203
    5.497330   -2.411013   -2.411013   -2.411013    0.000182    0.000182    0.000182
    5.522432   -2.276279   -2.276279   -2.276279    0.000159    0.000159    0.000159
    5.547533   -2.143010   -2.143010   -2.143010    0.000135    0.000135    0.000135
    5.572635   -2.017997   -2.017997   -2.017997    0.000109    0.000109    0.000109
    5.597737   -1.908090   -1.908090   -1.908090    0.000085    0.000085    0.000085
    5.622839   -1.819403   -1.819403   -1.819403    0.000061    0.000061    0.000061
    5.647941   -1.756608   -1.756608   -1.756608    0.000040    0.000040    0.000040
    5.673043   -1.722406   -1.722406   -1.722406    0.000024    0.000024    0.000024
    5.698145   -1.717279   -1.717279   -1.717279    0.000012    0.000012    0.000012
    5.723247   -1.739475   -1.739475   -1.739475    0.000005    0.000005    0.000005
    5.748349   -1.785289   -1.785289   -1.785289    0.000004    0.000004    0.000004
    5.773451   -1.849547   -1.849547   -1.849547    0.000008    0.000008    0.000008
    5.798553   -1.926234   -1.926234   -1.926234    0.000015    0.000015    0.000015
