  #energy          xx             yy              zz              xy              yz              zx
  0.00000000E+00  0.56327353E+00  0.56327353E+00  0.56327353E+00  0.10000000E+01  0.10000000E+01  0.10000000E+01
  0.25100000E-01  0.56363865E+00  0.56363865E+00  0.56363865E+00  0.99467985E+00  0.99467985E+00  0.99467985E+00
  0.50200000E-01  0.56471382E+00  0.56471382E+00  0.56471382E+00  0.98940803E+00  0.98940803E+00  0.98940803E+00
  0.75300000E-01  0.56644144E+00  0.56644144E+00  0.56644144E+00  0.98420313E+00  0.98420313E+00  0.98420313E+00
  0.10040000E+00  0.56873219E+00  0.56873219E+00  0.56873219E+00  0.97405785E+00  0.97405785E+00  0.97405785E+00
  0.12550000E+00  0.57147516E+00  0.57147516E+00  0.57147516E+00  0.96434495E+00  0.96434495E+00  0.96434495E+00
  0.15060000E+00  0.57454972E+00  0.57454972E+00  0.57454972E+00  0.95512121E+00  0.95512121E+00  0.95512121E+00
  0.17570000E+00  0.57783411E+00  0.57783411E+00  0.57783411E+00  0.94640502E+00  0.94640502E+00  0.94640502E+00
  0.20080000E+00  0.58121687E+00  0.58121687E+00  0.58121687E+00  0.93656440E+00  0.93656440E+00  0.93656440E+00
  0.22590000E+00  0.58460042E+00  0.58460042E+00  0.58460042E+00  0.92322457E+00  0.92322457E+00  0.92322457E+00
  0.25100000E+00  0.58790566E+00  0.58790566E+00  0.58790566E+00  0.91217404E+00  0.91217404E+00  0.91217404E+00
  0.27610000E+00  0.59107054E+00  0.59107054E+00  0.59107054E+00  0.90127107E+00  0.90127107E+00  0.90127107E+00
  0.30120000E+00  0.59404859E+00  0.59404859E+00  0.59404859E+00  0.88834150E+00  0.88834150E+00  0.88834150E+00
  0.32630000E+00  0.59680319E+00  0.59680319E+00  0.59680319E+00  0.87564805E+00  0.87564805E+00  0.87564805E+00
  0.35140000E+00  0.59930369E+00  0.59930369E+00  0.59930369E+00  0.86322235E+00  0.86322235E+00  0.86322235E+00
  0.37650000E+00  0.60151878E+00  0.60151878E+00  0.60151878E+00  0.85282569E+00  0.85282569E+00  0.85282569E+00
  0.40160000E+00  0.60341125E+00  0.60341125E+00  0.60341125E+00  0.84394208E+00  0.84394208E+00  0.84394208E+00
  0.42670000E+00  0.60493290E+00  0.60493290E+00  0.60493290E+00  0.83167178E+00  0.83167178E+00  0.83167178E+00
  0.45180000E+00  0.60602015E+00  0.60602015E+00  0.60602015E+00  0.82729138E+00  0.82729138E+00  0.82729138E+00
  0.47690000E+00  0.60659218E+00  0.60659218E+00  0.60659218E+00  0.81896567E+00  0.81896567E+00  0.81896567E+00
  0.50200000E+00  0.60655049E+00  0.60655049E+00  0.60655049E+00  0.81725742E+00  0.81725742E+00  0.81725742E+00
  0.52710000E+00  0.60578082E+00  0.60578082E+00  0.60578082E+00  0.81656993E+00  0.81656993E+00  0.81656993E+00
  0.55220000E+00  0.60416146E+00  0.60416146E+00  0.60416146E+00  0.81507515E+00  0.81507515E+00  0.81507515E+00
  0.57730000E+00  0.60157764E+00  0.60157764E+00  0.60157764E+00  0.81856146E+00  0.81856146E+00  0.81856146E+00
  0.60240000E+00  0.59794956E+00  0.59794956E+00  0.59794956E+00  0.82440380E+00  0.82440380E+00  0.82440380E+00
  0.62750000E+00  0.59326855E+00  0.59326855E+00  0.59326855E+00  0.83254804E+00  0.83254804E+00  0.83254804E+00
  0.65270000E+00  0.58765074E+00  0.58765074E+00  0.58765074E+00  0.84138803E+00  0.84138803E+00  0.84138803E+00
  0.67780000E+00  0.58138492E+00  0.58138492E+00  0.58138492E+00  0.85342753E+00  0.85342753E+00  0.85342753E+00
  0.70290000E+00  0.57495362E+00  0.57495362E+00  0.57495362E+00  0.86857869E+00  0.86857869E+00  0.86857869E+00
  0.72800000E+00  0.56898558E+00  0.56898558E+00  0.56898558E+00  0.88030902E+00  0.88030902E+00  0.88030902E+00
  0.75310000E+00  0.56413367E+00  0.56413367E+00  0.56413367E+00  0.89506290E+00  0.89506290E+00  0.89506290E+00
  0.77820000E+00  0.56090665E+00  0.56090665E+00  0.56090665E+00  0.91028686E+00  0.91028686E+00  0.91028686E+00
  0.80330000E+00  0.55954202E+00  0.55954202E+00  0.55954202E+00  0.92761363E+00  0.92761363E+00  0.92761363E+00
  0.82840000E+00  0.55997970E+00  0.55997970E+00  0.55997970E+00  0.94289675E+00  0.94289675E+00  0.94289675E+00
  0.85350000E+00  0.56192892E+00  0.56192892E+00  0.56192892E+00  0.96480428E+00  0.96480428E+00  0.96480428E+00
  0.87860000E+00  0.56498191E+00  0.56498191E+00  0.56498191E+00  0.97459049E+00  0.97459049E+00  0.97459049E+00
  0.90370000E+00  0.56870275E+00  0.56870275E+00  0.56870275E+00  0.10000000E+01  0.10000000E+01  0.10000000E+01
  0.92880000E+00  0.57268283E+00  0.57268283E+00  0.57268283E+00  0.97211290E+00  0.97211290E+00  0.97211290E+00
  0.95390000E+00  0.57655239E+00  0.57655239E+00  0.57655239E+00  0.95039234E+00  0.95039234E+00  0.95039234E+00
  0.97900000E+00  0.57997650E+00  0.57997650E+00  0.57997650E+00  0.92987979E+00  0.92987979E+00  0.92987979E+00
  0.10041000E+01  0.58263400E+00  0.58263400E+00  0.58263400E+00  0.92096198E+00  0.92096198E+00  0.92096198E+00
  0.10292000E+01  0.58419575E+00  0.58419575E+00  0.58419575E+00  0.92096198E+00  0.92096198E+00  0.92096198E+00
  0.10543000E+01  0.58430609E+00  0.58430609E+00  0.58430609E+00  0.91402336E+00  0.91402336E+00  0.91402336E+00
  0.10794000E+01  0.58257397E+00  0.58257397E+00  0.58257397E+00  0.91402336E+00  0.91402336E+00  0.91402336E+00
  0.11045000E+01  0.57857358E+00  0.57857358E+00  0.57857358E+00  0.91442701E+00  0.91442701E+00  0.91442701E+00
  0.11296000E+01  0.57186817E+00  0.57186817E+00  0.57186817E+00  0.91442701E+00  0.91442701E+00  0.91442701E+00
  0.11547000E+01  0.56206368E+00  0.56206368E+00  0.56206368E+00  0.91402336E+00  0.91402336E+00  0.91402336E+00
  0.11798000E+01  0.54888770E+00  0.54888770E+00  0.54888770E+00  0.91402336E+00  0.91402336E+00  0.91402336E+00
  0.12049000E+01  0.53229351E+00  0.53229351E+00  0.53229351E+00  0.92254087E+00  0.92254087E+00  0.92254087E+00
  0.12300000E+01  0.51252761E+00  0.51252761E+00  0.51252761E+00  0.92254087E+00  0.92254087E+00  0.92254087E+00
  0.12551000E+01  0.49013091E+00  0.49013091E+00  0.49013091E+00  0.92254087E+00  0.92254087E+00  0.92254087E+00
  0.12802000E+01  0.46581388E+00  0.46581388E+00  0.46581388E+00  0.92310650E+00  0.92310650E+00  0.92310650E+00
  0.13053000E+01  0.44025068E+00  0.44025068E+00  0.44025068E+00  0.92310650E+00  0.92310650E+00  0.92310650E+00
  0.13304000E+01  0.41390649E+00  0.41390649E+00  0.41390649E+00  0.92310650E+00  0.92310650E+00  0.92310650E+00
  0.13555000E+01  0.38698693E+00  0.38698693E+00  0.38698693E+00  0.92310650E+00  0.92310650E+00  0.92310650E+00
  0.13806000E+01  0.35954423E+00  0.35954423E+00  0.35954423E+00  0.91402336E+00  0.91402336E+00  0.91402336E+00
  0.14057000E+01  0.33172680E+00  0.33172680E+00  0.33172680E+00  0.91402336E+00  0.91402336E+00  0.91402336E+00
  0.14308000E+01  0.30405015E+00  0.30405015E+00  0.30405015E+00  0.91402336E+00  0.91402336E+00  0.91402336E+00
  0.14559000E+01  0.27761576E+00  0.27761576E+00  0.27761576E+00  0.90634406E+00  0.90634406E+00  0.90634406E+00
  0.14810000E+01  0.25406455E+00  0.25406455E+00  0.25406455E+00  0.90634406E+00  0.90634406E+00  0.90634406E+00
  0.15061000E+01  0.23519084E+00  0.23519084E+00  0.23519084E+00  0.90634406E+00  0.90634406E+00  0.90634406E+00
  0.15312000E+01  0.22231676E+00  0.22231676E+00  0.22231676E+00  0.89931417E+00  0.89931417E+00  0.89931417E+00
  0.15563000E+01  0.21579420E+00  0.21579420E+00  0.21579420E+00  0.89931417E+00  0.89931417E+00  0.89931417E+00
  0.15814000E+01  0.21496191E+00  0.21496191E+00  0.21496191E+00  0.89300128E+00  0.89300128E+00  0.89300128E+00
  0.16065000E+01  0.21855110E+00  0.21855110E+00  0.21855110E+00  0.89300128E+00  0.89300128E+00  0.89300128E+00
  0.16316000E+01  0.22515524E+00  0.22515524E+00  0.22515524E+00  0.89300128E+00  0.89300128E+00  0.89300128E+00
  0.16567000E+01  0.23353706E+00  0.23353706E+00  0.23353706E+00  0.88688849E+00  0.88688849E+00  0.88688849E+00
  0.16818000E+01  0.24275750E+00  0.24275750E+00  0.24275750E+00  0.88672505E+00  0.88672505E+00  0.88672505E+00
  0.17069000E+01  0.25216601E+00  0.25216601E+00  0.25216601E+00  0.88672505E+00  0.88672505E+00  0.88672505E+00
  0.17320000E+01  0.26134342E+00  0.26134342E+00  0.26134342E+00  0.88624225E+00  0.88624225E+00  0.88624225E+00
  0.17571000E+01  0.27004525E+00  0.27004525E+00  0.27004525E+00  0.88059508E+00  0.88059508E+00  0.88059508E+00
  0.17822000E+01  0.27814739E+00  0.27814739E+00  0.27814739E+00  0.88059508E+00  0.88059508E+00  0.88059508E+00
  0.18073000E+01  0.28560354E+00  0.28560354E+00  0.28560354E+00  0.87992670E+00  0.87992670E+00  0.87992670E+00
  0.18324000E+01  0.29241809E+00  0.29241809E+00  0.29241809E+00  0.87992670E+00  0.87992670E+00  0.87992670E+00
  0.18575000E+01  0.29862364E+00  0.29862364E+00  0.29862364E+00  0.87992670E+00  0.87992670E+00  0.87992670E+00
  0.18826000E+01  0.30427647E+00  0.30427647E+00  0.30427647E+00  0.87902340E+00  0.87902340E+00  0.87902340E+00
  0.19077000E+01  0.30943778E+00  0.30943778E+00  0.30943778E+00  0.87902340E+00  0.87902340E+00  0.87902340E+00
  0.19329000E+01  0.31419115E+00  0.31419115E+00  0.31419115E+00  0.87902340E+00  0.87902340E+00  0.87902340E+00
  0.19580000E+01  0.31862786E+00  0.31862786E+00  0.31862786E+00  0.87387383E+00  0.87387383E+00  0.87387383E+00
  0.19831000E+01  0.32285770E+00  0.32285770E+00  0.32285770E+00  0.87387383E+00  0.87387383E+00  0.87387383E+00
  0.20082000E+01  0.32700342E+00  0.32700342E+00  0.32700342E+00  0.86807841E+00  0.86807841E+00  0.86807841E+00
  0.20333000E+01  0.33119906E+00  0.33119906E+00  0.33119906E+00  0.86807841E+00  0.86807841E+00  0.86807841E+00
  0.20584000E+01  0.33556781E+00  0.33556781E+00  0.33556781E+00  0.86252646E+00  0.86252646E+00  0.86252646E+00
  0.20835000E+01  0.34021131E+00  0.34021131E+00  0.34021131E+00  0.85720101E+00  0.85720101E+00  0.85720101E+00
  0.21086000E+01  0.34519684E+00  0.34519684E+00  0.34519684E+00  0.85615660E+00  0.85615660E+00  0.85615660E+00
  0.21337000E+01  0.35053798E+00  0.35053798E+00  0.35053798E+00  0.85380199E+00  0.85380199E+00  0.85380199E+00
  0.21588000E+01  0.35619876E+00  0.35619876E+00  0.35619876E+00  0.84872833E+00  0.84872833E+00  0.84872833E+00
  0.21839000E+01  0.36209127E+00  0.36209127E+00  0.36209127E+00  0.84977200E+00  0.84977200E+00  0.84977200E+00
  0.22090000E+01  0.36809347E+00  0.36809347E+00  0.36809347E+00  0.84686171E+00  0.84686171E+00  0.84686171E+00
  0.22341000E+01  0.37405984E+00  0.37405984E+00  0.37405984E+00  0.85041898E+00  0.85041898E+00  0.85041898E+00
  0.22592000E+01  0.37984015E+00  0.37984015E+00  0.37984015E+00  0.85193753E+00  0.85193753E+00  0.85193753E+00
  0.22843000E+01  0.38528807E+00  0.38528807E+00  0.38528807E+00  0.85644516E+00  0.85644516E+00  0.85644516E+00
  0.23094000E+01  0.39027435E+00  0.39027435E+00  0.39027435E+00  0.86059087E+00  0.86059087E+00  0.86059087E+00
  0.23345000E+01  0.39469767E+00  0.39469767E+00  0.39469767E+00  0.86666658E+00  0.86666658E+00  0.86666658E+00
  0.23596000E+01  0.39849239E+00  0.39849239E+00  0.39849239E+00  0.87519037E+00  0.87519037E+00  0.87519037E+00
  0.23847000E+01  0.40163865E+00  0.40163865E+00  0.40163865E+00  0.88398755E+00  0.88398755E+00  0.88398755E+00
  0.24098000E+01  0.40417607E+00  0.40417607E+00  0.40417607E+00  0.89308217E+00  0.89308217E+00  0.89308217E+00
  0.24349000E+01  0.40621195E+00  0.40621195E+00  0.40621195E+00  0.89629141E+00  0.89629141E+00  0.89629141E+00
  0.24600000E+01  0.40792864E+00  0.40792864E+00  0.40792864E+00  0.89616509E+00  0.89616509E+00  0.89616509E+00
  0.24851000E+01  0.40957428E+00  0.40957428E+00  0.40957428E+00  0.89577328E+00  0.89577328E+00  0.89577328E+00
  0.25102000E+01  0.41143669E+00  0.41143669E+00  0.41143669E+00  0.88812576E+00  0.88812576E+00  0.88812576E+00
  0.25353000E+01  0.41380894E+00  0.41380894E+00  0.41380894E+00  0.88157398E+00  0.88157398E+00  0.88157398E+00
  0.25604000E+01  0.41692473E+00  0.41692473E+00  0.41692473E+00  0.87536488E+00  0.87536488E+00  0.87536488E+00
  0.25855000E+01  0.42091864E+00  0.42091864E+00  0.42091864E+00  0.86496840E+00  0.86496840E+00  0.86496840E+00
  0.26106000E+01  0.42580422E+00  0.42580422E+00  0.42580422E+00  0.86059087E+00  0.86059087E+00  0.86059087E+00
  0.26357000E+01  0.43147831E+00  0.43147831E+00  0.43147831E+00  0.85982463E+00  0.85982463E+00  0.85982463E+00
  0.26608000E+01  0.43775019E+00  0.43775019E+00  0.43775019E+00  0.85841738E+00  0.85841738E+00  0.85841738E+00
  0.26859000E+01  0.44438844E+00  0.44438844E+00  0.44438844E+00  0.86111573E+00  0.86111573E+00  0.86111573E+00
  0.27110000E+01  0.45115339E+00  0.45115339E+00  0.45115339E+00  0.86547140E+00  0.86547140E+00  0.86547140E+00
  0.27361000E+01  0.45782069E+00  0.45782069E+00  0.45782069E+00  0.87375496E+00  0.87375496E+00  0.87375496E+00
  0.27612000E+01  0.46419993E+00  0.46419993E+00  0.46419993E+00  0.88395994E+00  0.88395994E+00  0.88395994E+00
  0.27863000E+01  0.47013299E+00  0.47013299E+00  0.47013299E+00  0.89192981E+00  0.89192981E+00  0.89192981E+00
  0.28114000E+01  0.47549887E+00  0.47549887E+00  0.47549887E+00  0.90535103E+00  0.90535103E+00  0.90535103E+00
  0.28365000E+01  0.48020927E+00  0.48020927E+00  0.48020927E+00  0.91745136E+00  0.91745136E+00  0.91745136E+00
  0.28616000E+01  0.48421281E+00  0.48421281E+00  0.48421281E+00  0.92851363E+00  0.92851363E+00  0.92851363E+00
  0.28867000E+01  0.48749396E+00  0.48749396E+00  0.48749396E+00  0.94000240E+00  0.94000240E+00  0.94000240E+00
  0.29118000E+01  0.49008092E+00  0.49008092E+00  0.49008092E+00  0.94610039E+00  0.94610039E+00  0.94610039E+00
  0.29369000E+01  0.49205098E+00  0.49205098E+00  0.49205098E+00  0.95755969E+00  0.95755969E+00  0.95755969E+00
  0.29620000E+01  0.49353506E+00  0.49353506E+00  0.49353506E+00  0.95968488E+00  0.95968488E+00  0.95968488E+00
  0.29871000E+01  0.49471034E+00  0.49471034E+00  0.49471034E+00  0.96294662E+00  0.96294662E+00  0.96294662E+00
  0.30122000E+01  0.49579343E+00  0.49579343E+00  0.49579343E+00  0.96640781E+00  0.96640781E+00  0.96640781E+00
  0.30373000E+01  0.49700770E+00  0.49700770E+00  0.49700770E+00  0.96541959E+00  0.96541959E+00  0.96541959E+00
  0.30624000E+01  0.49855682E+00  0.49855682E+00  0.49855682E+00  0.95967000E+00  0.95967000E+00  0.95967000E+00
  0.30875000E+01  0.50059368E+00  0.50059368E+00  0.50059368E+00  0.95967000E+00  0.95967000E+00  0.95967000E+00
  0.31126000E+01  0.50319146E+00  0.50319146E+00  0.50319146E+00  0.95639257E+00  0.95639257E+00  0.95639257E+00
  0.31377000E+01  0.50633662E+00  0.50633662E+00  0.50633662E+00  0.95757056E+00  0.95757056E+00  0.95757056E+00
  0.31628000E+01  0.50994454E+00  0.50994454E+00  0.50994454E+00  0.95866512E+00  0.95866512E+00  0.95866512E+00
  0.31879000E+01  0.51386633E+00  0.51386633E+00  0.51386633E+00  0.96475590E+00  0.96475590E+00  0.96475590E+00
  0.32131000E+01  0.51791650E+00  0.51791650E+00  0.51791650E+00  0.96968231E+00  0.96968231E+00  0.96968231E+00
  0.32382000E+01  0.52189650E+00  0.52189650E+00  0.52189650E+00  0.97860711E+00  0.97860711E+00  0.97860711E+00
  0.32633000E+01  0.52560372E+00  0.52560372E+00  0.52560372E+00  0.98705205E+00  0.98705205E+00  0.98705205E+00
  0.32884000E+01  0.52885613E+00  0.52885613E+00  0.52885613E+00  0.99565549E+00  0.99565549E+00  0.99565549E+00
  0.33135000E+01  0.53150124E+00  0.53150124E+00  0.53150124E+00  0.99565549E+00  0.99565549E+00  0.99565549E+00
  0.33386000E+01  0.53342688E+00  0.53342688E+00  0.53342688E+00  0.98673651E+00  0.98673651E+00  0.98673651E+00
  0.33637000E+01  0.53457164E+00  0.53457164E+00  0.53457164E+00  0.97696178E+00  0.97696178E+00  0.97696178E+00
  0.33888000E+01  0.53494007E+00  0.53494007E+00  0.53494007E+00  0.97178133E+00  0.97178133E+00  0.97178133E+00
  0.34139000E+01  0.53460074E+00  0.53460074E+00  0.53460074E+00  0.97009899E+00  0.97009899E+00  0.97009899E+00
  0.34390000E+01  0.53368373E+00  0.53368373E+00  0.53368373E+00  0.96434495E+00  0.96434495E+00  0.96434495E+00
  0.34641000E+01  0.53236332E+00  0.53236332E+00  0.53236332E+00  0.96317158E+00  0.96317158E+00  0.96317158E+00
  0.34892000E+01  0.53082662E+00  0.53082662E+00  0.53082662E+00  0.96188490E+00  0.96188490E+00  0.96188490E+00
  0.35143000E+01  0.52924980E+00  0.52924980E+00  0.52924980E+00  0.96565845E+00  0.96565845E+00  0.96565845E+00
  0.35394000E+01  0.52775843E+00  0.52775843E+00  0.52775843E+00  0.96423120E+00  0.96423120E+00  0.96423120E+00
  0.35645000E+01  0.52641585E+00  0.52641585E+00  0.52641585E+00  0.96423120E+00  0.96423120E+00  0.96423120E+00
  0.35896000E+01  0.52522130E+00  0.52522130E+00  0.52522130E+00  0.96263026E+00  0.96263026E+00  0.96263026E+00
  0.36147000E+01  0.52411536E+00  0.52411536E+00  0.52411536E+00  0.96263026E+00  0.96263026E+00  0.96263026E+00
  0.36398000E+01  0.52299702E+00  0.52299702E+00  0.52299702E+00  0.96263026E+00  0.96263026E+00  0.96263026E+00
  0.36649000E+01  0.52175345E+00  0.52175345E+00  0.52175345E+00  0.96082272E+00  0.96082272E+00  0.96082272E+00
  0.36900000E+01  0.52027329E+00  0.52027329E+00  0.52027329E+00  0.96082272E+00  0.96082272E+00  0.96082272E+00
  0.37151000E+01  0.51847752E+00  0.51847752E+00  0.51847752E+00  0.95876844E+00  0.95876844E+00  0.95876844E+00
  0.37402000E+01  0.51632825E+00  0.51632825E+00  0.51632825E+00  0.95876844E+00  0.95876844E+00  0.95876844E+00
  0.37653000E+01  0.51383795E+00  0.51383795E+00  0.51383795E+00  0.96268396E+00  0.96268396E+00  0.96268396E+00
  0.37904000E+01  0.51108861E+00  0.51108861E+00  0.51108861E+00  0.96268396E+00  0.96268396E+00  0.96268396E+00
  0.38155000E+01  0.50821573E+00  0.50821573E+00  0.50821573E+00  0.96268396E+00  0.96268396E+00  0.96268396E+00
  0.38406000E+01  0.50540021E+00  0.50540021E+00  0.50540021E+00  0.96937189E+00  0.96937189E+00  0.96937189E+00
  0.38657000E+01  0.50284715E+00  0.50284715E+00  0.50284715E+00  0.96937189E+00  0.96937189E+00  0.96937189E+00
  0.38908000E+01  0.50076684E+00  0.50076684E+00  0.50076684E+00  0.96937189E+00  0.96937189E+00  0.96937189E+00
  0.39159000E+01  0.49932638E+00  0.49932638E+00  0.49932638E+00  0.96937189E+00  0.96937189E+00  0.96937189E+00
  0.39410000E+01  0.49865221E+00  0.49865221E+00  0.49865221E+00  0.96937189E+00  0.96937189E+00  0.96937189E+00
  0.39661000E+01  0.49880551E+00  0.49880551E+00  0.49880551E+00  0.97129018E+00  0.97129018E+00  0.97129018E+00
  0.39912000E+01  0.49977613E+00  0.49977613E+00  0.49977613E+00  0.97129018E+00  0.97129018E+00  0.97129018E+00
  0.40163000E+01  0.50150569E+00  0.50150569E+00  0.50150569E+00  0.96485628E+00  0.96485628E+00  0.96485628E+00
  0.40414000E+01  0.50388130E+00  0.50388130E+00  0.50388130E+00  0.96485628E+00  0.96485628E+00  0.96485628E+00
  0.40665000E+01  0.50676486E+00  0.50676486E+00  0.50676486E+00  0.96485628E+00  0.96485628E+00  0.96485628E+00
  0.40916000E+01  0.50998715E+00  0.50998715E+00  0.50998715E+00  0.95876844E+00  0.95876844E+00  0.95876844E+00
  0.41167000E+01  0.51336921E+00  0.51336921E+00  0.51336921E+00  0.95641909E+00  0.95641909E+00  0.95641909E+00
  0.41418000E+01  0.51672928E+00  0.51672928E+00  0.51672928E+00  0.95054969E+00  0.95054969E+00  0.95054969E+00
  0.41669000E+01  0.51987768E+00  0.51987768E+00  0.51987768E+00  0.95054969E+00  0.95054969E+00  0.95054969E+00
  0.41920000E+01  0.52263349E+00  0.52263349E+00  0.52263349E+00  0.94776406E+00  0.94776406E+00  0.94776406E+00
  0.42171000E+01  0.52482020E+00  0.52482020E+00  0.52482020E+00  0.94776406E+00  0.94776406E+00  0.94776406E+00
  0.42422000E+01  0.52629362E+00  0.52629362E+00  0.52629362E+00  0.94461621E+00  0.94461621E+00  0.94461621E+00
  0.42673000E+01  0.52691960E+00  0.52691960E+00  0.52691960E+00  0.93560207E+00  0.93560207E+00  0.93560207E+00
  0.42924000E+01  0.52660883E+00  0.52660883E+00  0.52660883E+00  0.93560207E+00  0.93560207E+00  0.93560207E+00
  0.43175000E+01  0.52531907E+00  0.52531907E+00  0.52531907E+00  0.93709694E+00  0.93709694E+00  0.93709694E+00
  0.43426000E+01  0.52303584E+00  0.52303584E+00  0.52303584E+00  0.93709694E+00  0.93709694E+00  0.93709694E+00
  0.43677000E+01  0.51979818E+00  0.51979818E+00  0.51979818E+00  0.93270151E+00  0.93270151E+00  0.93270151E+00
  0.43928000E+01  0.51567170E+00  0.51567170E+00  0.51567170E+00  0.93270151E+00  0.93270151E+00  0.93270151E+00
