#K-Path(1/A)         Spin-Up(eV)   Spin-down(eV)
# NKPTS & NBANDS: 200  17
# Band-Index    1
   0.00000    -17.814148    -17.814148
   0.16111    -17.812257    -17.812257
   0.32221    -17.806106    -17.806105
   0.48332    -17.796251    -17.796251
   0.64443    -17.783241    -17.783241
   0.80554    -17.766200    -17.766200
   0.96664    -17.746305    -17.746305
   1.12775    -17.722185    -17.722185
   1.28886    -17.696126    -17.696126
   1.44997    -17.667312    -17.667312
   1.61107    -17.636017    -17.636017
   1.77218    -17.602524    -17.602524
   1.93329    -17.568197    -17.568197
   2.09440    -17.531298    -17.531298
   2.25550    -17.493191    -17.493191
   2.41661    -17.454236    -17.454236
   2.57772    -17.414788    -17.414788
   2.73882    -17.375214    -17.375214
   2.89993    -17.337023    -17.337023
   3.06104    -17.299438    -17.299438
   3.22215    -17.261726    -17.261726
   3.38325    -17.224785    -17.224785
   3.54436    -17.189846    -17.189846
   3.70547    -17.156669    -17.156669
   3.86658    -17.124022    -17.124022
   4.02768    -17.094892    -17.094892
   4.18879    -17.067933    -17.067933
   4.34990    -17.043613    -17.043613
   4.51100    -17.020860    -17.020860
   4.67211    -17.000078    -17.000077
   4.83322    -16.980063    -16.980063
   4.99433    -16.962933    -16.962933
   5.15543    -16.947535    -16.947535
   5.31654    -16.933806    -16.933806
   5.47765    -16.921875    -16.921875
   5.63876    -16.911126    -16.911126
   5.79986    -16.903043    -16.903043
   5.96097    -16.897082    -16.897083
   6.12208    -16.893074    -16.893074
   6.28319    -16.891847    -16.891847
   6.28319    -16.891847    -16.891847
   6.36374    -16.891717    -16.891717
   6.44429    -16.891335    -16.891335
   6.52485    -16.891367    -16.891367
   6.60540    -16.890502    -16.890502
   6.68595    -16.890100    -16.890100
   6.76651    -16.888815    -16.888815
   6.84706    -16.887353    -16.887353
   6.92761    -16.885754    -16.885754
   7.00817    -16.884670    -16.884670
   7.08872    -16.882961    -16.882962
   7.16928    -16.881311    -16.881311
   7.24983    -16.880242    -16.880242
   7.33038    -16.879052    -16.879052
   7.41094    -16.878640    -16.878641
   7.49149    -16.878687    -16.878687
   7.57204    -16.879597    -16.879597
   7.65260    -16.881311    -16.881311
   7.73315    -16.883658    -16.883658
   7.81370    -16.886484    -16.886484
   7.89426    -16.889650    -16.889650
   7.97481    -16.893043    -16.893043
   8.05537    -16.896563    -16.896564
   8.13592    -16.900000    -16.899999
   8.21647    -16.903585    -16.903585
   8.29703    -16.907115    -16.907115
   8.37758    -16.911480    -16.911480
   8.45813    -16.914234    -16.914235
   8.53869    -16.917401    -16.917401
   8.61924    -16.920378    -16.920378
   8.69980    -16.923141    -16.923141
   8.78035    -16.925911    -16.925911
   8.86090    -16.928182    -16.928181
   8.94146    -16.930188    -16.930189
   9.02201    -16.932026    -16.932026
   9.10256    -16.933455    -16.933455
   9.18312    -16.934575    -16.934575
   9.26367    -16.935379    -16.935379
   9.34422    -16.936098    -16.936098
   9.42478    -16.936541    -16.936540
   9.42478    -16.936541    -16.936541
   9.63015    -16.973794    -16.973794
   9.83552    -17.015270    -17.015270
  10.04089    -17.059956    -17.059956
  10.24627    -17.107512    -17.107511
  10.45164    -17.157556    -17.157555
  10.65701    -17.209259    -17.209259
  10.86238    -17.261250    -17.261250
  11.06776    -17.313674    -17.313675
  11.27313    -17.365627    -17.365627
  11.47850    -17.416524    -17.416524
  11.68387    -17.465293    -17.465293
  11.88925    -17.511290    -17.511290
  12.09462    -17.554642    -17.554642
  12.29999    -17.593575    -17.593575
  12.50536    -17.628434    -17.628434
  12.71074    -17.658766    -17.658766
  12.91611    -17.684243    -17.684243
  13.12148    -17.704256    -17.704256
  13.32685    -17.718716    -17.718716
  13.53222    -17.727458    -17.727458
  13.73760    -17.730380    -17.730380
  13.94297    -17.727968    -17.727968
  14.14834    -17.718968    -17.718968
  14.35371    -17.704256    -17.704256
  14.55909    -17.683725    -17.683725
  14.76446    -17.658273    -17.658273
  14.96983    -17.628199    -17.628199
  15.17520    -17.593461    -17.593461
  15.38058    -17.554113    -17.554113
  15.58595    -17.511290    -17.511290
  15.79132    -17.465059    -17.465059
  15.99669    -17.416755    -17.416755
  16.20207    -17.365869    -17.365869
  16.40744    -17.314296    -17.314296
  16.61281    -17.262272    -17.262272
  16.81818    -17.210469    -17.210469
  17.02355    -17.159845    -17.159845
  17.22893    -17.111090    -17.111090
  17.43430    -17.065461    -17.065462
  17.43430    -17.065462    -17.065462
  17.60518    -17.091817    -17.091817
  17.77606    -17.117792    -17.117792
  17.94694    -17.142785    -17.142785
  18.11782    -17.166839    -17.166839
  18.28870    -17.188876    -17.188876
  18.45958    -17.209220    -17.209220
  18.63046    -17.227128    -17.227128
  18.80134    -17.242503    -17.242504
  18.97222    -17.255083    -17.255083
  19.14310    -17.265786    -17.265786
  19.31398    -17.273595    -17.273595
  19.48486    -17.278762    -17.278762
  19.65574    -17.280447    -17.280447
  19.82662    -17.278271    -17.278272
  19.99750    -17.272611    -17.272611
  20.16838    -17.264310    -17.264310
  20.33926    -17.253129    -17.253129
  20.51014    -17.240077    -17.240076
  20.68102    -17.224327    -17.224327
  20.85190    -17.214666    -17.214666
  21.02278    -17.259632    -17.259632
  21.19366    -17.306041    -17.306041
  21.36454    -17.353020    -17.353020
  21.53542    -17.399038    -17.399038
  21.70630    -17.445031    -17.445031
  21.87718    -17.489558    -17.489558
  22.04806    -17.532452    -17.532452
  22.21894    -17.572808    -17.572808
  22.38982    -17.611349    -17.611349
  22.56070    -17.647204    -17.647204
  22.73158    -17.680112    -17.680112
  22.90246    -17.709773    -17.709773
  23.07334    -17.737249    -17.737249
  23.24422    -17.760288    -17.760288
  23.41510    -17.779211    -17.779211
  23.58598    -17.794367    -17.794367
  23.75686    -17.805412    -17.805412
  23.92774    -17.812022    -17.812022
  24.09862    -17.814148    -17.814148
  24.09862    -17.814148    -17.814148
  24.23815    -17.812732    -17.812732
  24.37767    -17.808481    -17.808481
  24.51719    -17.800710    -17.800710
  24.65672    -17.790881    -17.790881
  24.79624    -17.778311    -17.778311
  24.93576    -17.762678    -17.762677
  25.07528    -17.744054    -17.744054
  25.21481    -17.723704    -17.723704
  25.35433    -17.700158    -17.700158
  25.49385    -17.675080    -17.675080
  25.63338    -17.647079    -17.647079
  25.77290    -17.618217    -17.618217
  25.91242    -17.587072    -17.587072
  26.05195    -17.554224    -17.554224
  26.19147    -17.519782    -17.519782
  26.33099    -17.484232    -17.484232
  26.47051    -17.447886    -17.447886
  26.61004    -17.412470    -17.412470
  26.74956    -17.380734    -17.380733
  26.88908    -17.380733    -17.380733
  27.02861    -17.412470    -17.412470
  27.16813    -17.447886    -17.447886
  27.30765    -17.484232    -17.484232
  27.44718    -17.519782    -17.519782
  27.58670    -17.554224    -17.554224
  27.72622    -17.587072    -17.587072
  27.86575    -17.618217    -17.618217
  28.00527    -17.647079    -17.647079
  28.14479    -17.675080    -17.675080
  28.28431    -17.700158    -17.700158
  28.42384    -17.723704    -17.723704
  28.56336    -17.744054    -17.744054
  28.70288    -17.762678    -17.762677
  28.84241    -17.778311    -17.778311
  28.98193    -17.790881    -17.790881
  29.12145    -17.800710    -17.800710
  29.26098    -17.808481    -17.808481
  29.40050    -17.812732    -17.812732
  29.54002    -17.814148    -17.814148
 
# Band-Index    2
  29.54002    -16.821664    -16.821664
  29.40050    -16.823494    -16.823494
  29.26098    -16.829352    -16.829352
  29.12145    -16.839292    -16.839292
  28.98193    -16.851880    -16.851880
  28.84241    -16.867848    -16.867848
  28.70288    -16.887049    -16.887049
  28.56336    -16.909825    -16.909825
  28.42384    -16.935330    -16.935330
  28.28431    -16.963108    -16.963108
  28.14479    -16.992543    -16.992544
  28.00527    -17.024854    -17.024854
  27.86575    -17.059018    -17.059018
  27.72622    -17.094747    -17.094747
  27.58670    -17.131752    -17.131752
  27.44718    -17.169708    -17.169707
  27.30765    -17.207581    -17.207581
  27.16813    -17.246259    -17.246259
  27.02861    -17.284085    -17.284085
  26.88908    -17.316623    -17.316623
  26.74956    -17.316623    -17.316622
  26.61004    -17.284085    -17.284085
  26.47051    -17.246259    -17.246259
  26.33099    -17.207581    -17.207581
  26.19147    -17.169708    -17.169708
  26.05195    -17.131752    -17.131752
  25.91242    -17.094747    -17.094747
  25.77290    -17.059018    -17.059018
  25.63338    -17.024854    -17.024854
  25.49385    -16.992544    -16.992544
  25.35433    -16.963108    -16.963108
  25.21481    -16.935330    -16.935330
  25.07528    -16.909825    -16.909825
  24.93576    -16.887049    -16.887049
  24.79624    -16.867849    -16.867849
  24.65672    -16.851880    -16.851880
  24.51719    -16.839292    -16.839292
  24.37767    -16.829352    -16.829352
  24.23815    -16.823494    -16.823494
  24.09862    -16.821664    -16.821664
  24.09862    -16.821664    -16.821664
  23.92774    -16.823875    -16.823875
  23.75686    -16.829511    -16.829511
  23.58598    -16.838311    -16.838311
  23.41510    -16.850401    -16.850401
  23.24422    -16.865557    -16.865557
  23.07334    -16.883802    -16.883802
  22.90246    -16.904859    -16.904859
  22.73158    -16.927473    -16.927474
  22.56070    -16.952319    -16.952319
  22.38982    -16.977314    -16.977314
  22.21894    -17.003532    -17.003532
  22.04806    -17.030960    -17.030960
  21.87718    -17.058415    -17.058415
  21.70630    -17.085384    -17.085383
  21.53542    -17.111936    -17.111936
  21.36454    -17.137483    -17.137483
  21.19366    -17.162063    -17.162063
  21.02278    -17.184543    -17.184543
  20.85190    -17.203877    -17.203877
  20.68102    -17.167015    -17.167015
  20.51014    -17.122830    -17.122830
  20.33926    -17.080255    -17.080255
  20.16838    -17.040751    -17.040751
  19.99750    -17.002697    -17.002697
  19.82662    -16.967382    -16.967382
  19.65574    -16.935637    -16.935637
  19.48486    -16.906084    -16.906084
  19.31398    -16.880356    -16.880356
  19.14310    -16.858080    -16.858080
  18.97222    -16.838619    -16.838619
  18.80134    -16.823877    -16.823877
  18.63046    -16.811949    -16.811949
  18.45958    -16.803242    -16.803242
  18.28870    -16.797553    -16.797553
  18.11782    -16.794659    -16.794659
  17.94694    -16.794261    -16.794261
  17.77606    -16.796079    -16.796078
  17.60518    -16.799301    -16.799300
  17.43430    -16.804561    -16.804561
  17.43430    -16.804560    -16.804560
  17.22893    -16.802995    -16.802995
  17.02355    -16.802036    -16.802036
  16.81818    -16.801732    -16.801732
  16.61281    -16.801427    -16.801427
  16.40744    -16.802347    -16.802347
  16.20207    -16.803616    -16.803616
  15.99669    -16.804990    -16.804990
  15.79132    -16.806876    -16.806876
  15.58595    -16.808327    -16.808327
  15.38058    -16.809710    -16.809710
  15.17520    -16.811035    -16.811035
  14.96983    -16.812925    -16.812926
  14.76446    -16.814276    -16.814276
  14.55909    -16.815837    -16.815837
  14.35371    -16.816863    -16.816863
  14.14834    -16.817475    -16.817475
  13.94297    -16.817874    -16.817874
  13.73760    -16.818202    -16.818202
  13.53222    -16.818072    -16.818072
  13.32685    -16.817620    -16.817620
  13.12148    -16.816863    -16.816863
  12.91611    -16.815508    -16.815508
  12.71074    -16.814572    -16.814572
  12.50536    -16.812971    -16.812971
  12.29999    -16.811336    -16.811336
  12.09462    -16.810272    -16.810272
  11.88925    -16.808327    -16.808327
  11.68387    -16.806182    -16.806182
  11.47850    -16.804522    -16.804522
  11.27313    -16.802210    -16.802210
  11.06776    -16.800480    -16.800480
  10.86238    -16.798550    -16.798550
  10.65701    -16.796859    -16.796859
  10.45164    -16.795333    -16.795333
  10.24627    -16.793864    -16.793864
  10.04089    -16.793201    -16.793201
   9.83552    -16.792284    -16.792284
   9.63015    -16.791296    -16.791296
   9.42478    -16.791127    -16.791127
   9.42478    -16.791127    -16.791126
   9.34422    -16.791277    -16.791277
   9.26367    -16.791724    -16.791725
   9.18312    -16.792476    -16.792476
   9.10256    -16.793518    -16.793518
   9.02201    -16.794845    -16.794845
   8.94146    -16.796445    -16.796445
   8.86090    -16.798307    -16.798306
   8.78035    -16.800731    -16.800731
   8.69980    -16.803072    -16.803072
   8.61924    -16.805625    -16.805625
   8.53869    -16.808363    -16.808363
   8.45813    -16.811262    -16.811262
   8.37758    -16.814314    -16.814314
   8.29703    -16.817417    -16.817417
   8.21647    -16.820616    -16.820616
   8.13592    -16.823843    -16.823842
   8.05537    -16.827578    -16.827578
   7.97481    -16.830712    -16.830712
   7.89426    -16.833697    -16.833697
   7.81370    -16.836601    -16.836601
   7.73315    -16.838999    -16.838999
   7.65260    -16.840902    -16.840902
   7.57204    -16.842163    -16.842163
   7.49149    -16.842723    -16.842723
   7.41094    -16.842546    -16.842546
   7.33038    -16.841259    -16.841259
   7.24983    -16.839917    -16.839917
   7.16928    -16.837964    -16.837964
   7.08872    -16.836155    -16.836156
   7.00817    -16.834065    -16.834065
   6.92761    -16.831973    -16.831973
   6.84706    -16.830053    -16.830053
   6.76651    -16.828300    -16.828300
   6.68595    -16.826755    -16.826755
   6.60540    -16.825160    -16.825160
   6.52485    -16.824122    -16.824122
   6.44429    -16.823237    -16.823237
   6.36374    -16.821953    -16.821953
   6.28319    -16.821803    -16.821803
   6.28319    -16.821803    -16.821803
   6.12208    -16.823059    -16.823059
   5.96097    -16.824516    -16.824516
   5.79986    -16.827081    -16.827081
   5.63876    -16.830421    -16.830421
   5.47765    -16.834937    -16.834937
   5.31654    -16.840338    -16.840338
   5.15543    -16.847237    -16.847237
   4.99433    -16.854966    -16.854966
   4.83322    -16.863640    -16.863641
   4.67211    -16.872965    -16.872965
   4.51100    -16.882523    -16.882523
   4.34990    -16.891953    -16.891953
   4.18879    -16.902006    -16.902006
   4.02768    -16.909976    -16.909976
   3.86658    -16.917524    -16.917524
   3.70547    -16.924161    -16.924161
   3.54436    -16.929256    -16.929256
   3.38325    -16.932761    -16.932761
   3.22215    -16.934959    -16.934959
   3.06104    -16.935361    -16.935361
   2.89993    -16.933992    -16.933992
   2.73882    -16.931370    -16.931370
   2.57772    -16.927243    -16.927243
   2.41661    -16.921712    -16.921712
   2.25550    -16.915298    -16.915298
   2.09440    -16.908511    -16.908511
   1.93329    -16.899465    -16.899465
   1.77218    -16.890909    -16.890909
   1.61107    -16.881935    -16.881935
   1.44997    -16.872865    -16.872865
   1.28886    -16.863931    -16.863931
   1.12775    -16.855488    -16.855488
   0.96664    -16.847415    -16.847415
   0.80554    -16.840547    -16.840547
   0.64443    -16.834449    -16.834449
   0.48332    -16.829518    -16.829518
   0.32221    -16.825596    -16.825596
   0.16111    -16.823242    -16.823242
   0.00000    -16.821664    -16.821664
 
# Band-Index    3
   0.00000     -6.298884     -6.298884
   0.16111     -6.294851     -6.294851
   0.32221     -6.282580     -6.282580
   0.48332     -6.262407     -6.262407
   0.64443     -6.234897     -6.234897
   0.80554     -6.200676     -6.200676
   0.96664     -6.160565     -6.160565
   1.12775     -6.115816     -6.115816
   1.28886     -6.068165     -6.068165
   1.44997     -6.018576     -6.018576
   1.61107     -5.969339     -5.969339
   1.77218     -5.922692     -5.922692
   1.93329     -5.881102     -5.881102
   2.09440     -5.847282     -5.847282
   2.25550     -5.821044     -5.821044
   2.41661     -5.804190     -5.804190
   2.57772     -5.795887     -5.795887
   2.73882     -5.794580     -5.794580
   2.89993     -5.798479     -5.798479
   3.06104     -5.806574     -5.806574
   3.22215     -5.815402     -5.815402
   3.38325     -5.824488     -5.824488
   3.54436     -5.833779     -5.833779
   3.70547     -5.842965     -5.842965
   3.86658     -5.852594     -5.852594
   4.02768     -5.864859     -5.864859
   4.18879     -5.881752     -5.881752
   4.34990     -5.904052     -5.904052
   4.51100     -5.934717     -5.934717
   4.67211     -5.972229     -5.972229
   4.83322     -6.014302     -6.014302
   4.99433     -6.058728     -6.058728
   5.15543     -6.102485     -6.102485
   5.31654     -6.144074     -6.144074
   5.47765     -6.181725     -6.181725
   5.63876     -6.213918     -6.213918
   5.79986     -6.239896     -6.239896
   5.96097     -6.258912     -6.258912
   6.12208     -6.270458     -6.270458
   6.28319     -6.274255     -6.274255
   6.28319     -6.274255     -6.274255
   6.36374     -6.273236     -6.273236
   6.44429     -6.270272     -6.270272
   6.52485     -6.265342     -6.265343
   6.60540     -6.258290     -6.258290
   6.68595     -6.249380     -6.249380
   6.76651     -6.238474     -6.238474
   6.84706     -6.225723     -6.225723
   6.92761     -6.211199     -6.211199
   7.00817     -6.195006     -6.195006
   7.08872     -6.177187     -6.177187
   7.16928     -6.157765     -6.157765
   7.24983     -6.137118     -6.137118
   7.33038     -6.115140     -6.115140
   7.41094     -6.092121     -6.092121
   7.49149     -6.068048     -6.068048
   7.57204     -6.043491     -6.043491
   7.65260     -6.017973     -6.017973
   7.73315     -5.991996     -5.991996
   7.81370     -5.965759     -5.965759
   7.89426     -5.939376     -5.939376
   7.97481     -5.913265     -5.913265
   8.05537     -5.887554     -5.887554
   8.13592     -5.862420     -5.862420
   8.21647     -5.838223     -5.838223
   8.29703     -5.815135     -5.815135
   8.37758     -5.794184     -5.794184
   8.45813     -5.773716     -5.773716
   8.53869     -5.755231     -5.755231
   8.61924     -5.738587     -5.738588
   8.69980     -5.723864     -5.723864
   8.78035     -5.711174     -5.711174
   8.86090     -5.700351     -5.700351
   8.94146     -5.691331     -5.691330
   9.02201     -5.684123     -5.684123
   9.10256     -5.678386     -5.678386
   9.18312     -5.674093     -5.674093
   9.26367     -5.671121     -5.671121
   9.34422     -5.669580     -5.669579
   9.42478     -5.669012     -5.669011
   9.42478     -5.669012     -5.669012
   9.63015     -5.646064     -5.646063
   9.83552     -5.612141     -5.612141
  10.04089     -5.569249     -5.569249
  10.24627     -5.521177     -5.521177
  10.45164     -5.475461     -5.475460
  10.65701     -5.445347     -5.445347
  10.86238     -5.448777     -5.448777
  11.06776     -5.487587     -5.487587
  11.27313     -5.547535     -5.547535
  11.47850     -5.617915     -5.617915
  11.68387     -5.691857     -5.691857
  11.88925     -5.766106     -5.766106
  12.09462     -5.837841     -5.837841
  12.29999     -5.904871     -5.904871
  12.50536     -5.965906     -5.965906
  12.71074     -6.019622     -6.019622
  12.91611     -6.064910     -6.064910
  13.12148     -6.101149     -6.101149
  13.32685     -6.127444     -6.127444
  13.53222     -6.143481     -6.143481
  13.73760     -6.148956     -6.148956
  13.94297     -6.143751     -6.143750
  14.14834     -6.127703     -6.127703
  14.35371     -6.101149     -6.101148
  14.55909     -6.064531     -6.064531
  14.76446     -6.018430     -6.018430
  14.96983     -5.964007     -5.964007
  15.17520     -5.902304     -5.902304
