  #energy          xx             yy              zz              xy              yz              zx
  0.00000000E+00  0.00000000E+00  0.00000000E+00  0.00000000E+00  0.00000000E+00  0.00000000E+00  0.00000000E+00
  0.37800000E-01  0.24429023E-01  0.24429023E-01  0.49488073E-03  0.00000000E+00  0.00000000E+00  0.00000000E+00
  0.75600000E-01  0.49888982E-01  0.49888982E-01  0.98961039E-03  0.00000000E+00  0.00000000E+00  0.00000000E+00
  0.11330000E+00  0.78221943E-01  0.78221943E-01  0.14840130E-02  0.00000000E+00  0.00000000E+00  0.00000000E+00
  0.15110000E+00  0.11300376E+00  0.11300376E+00  0.19779467E-02  0.00000000E+00  0.00000000E+00  0.00000000E+00
  0.18890000E+00  0.16032570E+00  0.16032570E+00  0.25293663E-02  0.00000000E+00  0.00000000E+00  0.00000000E+00
  0.22670000E+00  0.22916421E+00  0.22916421E+00  0.30508774E-02  0.00000000E+00  0.00000000E+00  0.00000000E+00
  0.26450000E+00  0.33089378E+00  0.33089378E+00  0.36293603E-02  0.00000000E+00  0.00000000E+00  0.00000000E+00
  0.30220000E+00  0.47748577E+00  0.47748577E+00  0.42355203E-02  0.00000000E+00  0.00000000E+00  0.00000000E+00
  0.34000000E+00  0.67872622E+00  0.67872622E+00  0.48689936E-02  0.00000000E+00  0.00000000E+00  0.00000000E+00
  0.37780000E+00  0.93907186E+00  0.93907186E+00  0.55583980E-02  0.00000000E+00  0.00000000E+00  0.00000000E+00
  0.41560000E+00  0.12551366E+01  0.12551366E+01  0.62741511E-02  0.00000000E+00  0.00000000E+00  0.00000000E+00
  0.45340000E+00  0.16144784E+01  0.16144784E+01  0.70736608E-02  0.00000000E+00  0.00000000E+00  0.00000000E+00
  0.49110000E+00  0.19961786E+01  0.19961786E+01  0.79271292E-02  0.00000000E+00  0.00000000E+00  0.00000000E+00
  0.52890000E+00  0.23731605E+01  0.23731605E+01  0.88336959E-02  0.00000000E+00  0.00000000E+00  0.00000000E+00
  0.56670000E+00  0.27158856E+01  0.27158856E+01  0.98496597E-02  0.00000000E+00  0.00000000E+00  0.00000000E+00
  0.60450000E+00  0.29969654E+01  0.29969654E+01  0.10916199E-01  0.00000000E+00  0.00000000E+00  0.00000000E+00
  0.64230000E+00  0.31957364E+01  0.31957364E+01  0.12088584E-01  0.00000000E+00  0.00000000E+00  0.00000000E+00
  0.68000000E+00  0.33019097E+01  0.33019097E+01  0.13335167E-01  0.00000000E+00  0.00000000E+00  0.00000000E+00
  0.71780000E+00  0.33172930E+01  0.33172930E+01  0.14766250E-01  0.00000000E+00  0.00000000E+00  0.00000000E+00
  0.75560000E+00  0.32546811E+01  0.32546811E+01  0.16487958E-01  0.00000000E+00  0.00000000E+00  0.00000000E+00
  0.79340000E+00  0.31335257E+01  0.31335257E+01  0.18827959E-01  0.00000000E+00  0.00000000E+00  0.00000000E+00
  0.83110000E+00  0.29734484E+01  0.29734484E+01  0.22298100E-01  0.00000000E+00  0.00000000E+00  0.00000000E+00
  0.86890000E+00  0.27880589E+01  0.27880589E+01  0.27809103E-01  0.00000000E+00  0.00000000E+00  0.00000000E+00
  0.90670000E+00  0.25829597E+01  0.25829597E+01  0.36597276E-01  0.00000000E+00  0.00000000E+00  0.00000000E+00
  0.94450000E+00  0.23599883E+01  0.23599883E+01  0.50105470E-01  0.00000000E+00  0.00000000E+00  0.00000000E+00
  0.98230000E+00  0.21262603E+01  0.21262603E+01  0.69598937E-01  0.00000000E+00  0.00000000E+00  0.00000000E+00
  0.10200000E+01  0.19023649E+01  0.19023649E+01  0.95868414E-01  0.00000000E+00  0.00000000E+00  0.00000000E+00
  0.10578000E+01  0.17202969E+01  0.17202969E+01  0.12858724E+00  0.00000000E+00  0.00000000E+00  0.00000000E+00
  0.10956000E+01  0.16065808E+01  0.16065808E+01  0.16597287E+00  0.00000000E+00  0.00000000E+00  0.00000000E+00
  0.11334000E+01  0.15658361E+01  0.15658361E+01  0.20491056E+00  0.00000000E+00  0.00000000E+00  0.00000000E+00
  0.11712000E+01  0.15811856E+01  0.15811856E+01  0.24109886E+00  0.00000000E+00  0.00000000E+00  0.00000000E+00
  0.12089000E+01  0.16251130E+01  0.16251130E+01  0.26976504E+00  0.00000000E+00  0.00000000E+00  0.00000000E+00
  0.12467000E+01  0.16688612E+01  0.16688612E+01  0.28656903E+00  0.00000000E+00  0.00000000E+00  0.00000000E+00
  0.12845000E+01  0.16881383E+01  0.16881383E+01  0.28855506E+00  0.00000000E+00  0.00000000E+00  0.00000000E+00
  0.13223000E+01  0.16662054E+01  0.16662054E+01  0.27505350E+00  0.00000000E+00  0.00000000E+00  0.00000000E+00
  0.13601000E+01  0.15962780E+01  0.15962780E+01  0.24815973E+00  0.00000000E+00  0.00000000E+00  0.00000000E+00
  0.13978000E+01  0.14836691E+01  0.14836691E+01  0.21245719E+00  0.00000000E+00  0.00000000E+00  0.00000000E+00
  0.14356000E+01  0.13472550E+01  0.13472550E+01  0.17400465E+00  0.00000000E+00  0.00000000E+00  0.00000000E+00
  0.14734000E+01  0.12166648E+01  0.12166648E+01  0.13850586E+00  0.00000000E+00  0.00000000E+00  0.00000000E+00
  0.15112000E+01  0.11225181E+01  0.11225181E+01  0.11015506E+00  0.00000000E+00  0.00000000E+00  0.00000000E+00
  0.15490000E+01  0.10846926E+01  0.10846926E+01  0.91174113E-01  0.00000000E+00  0.00000000E+00  0.00000000E+00
  0.15867000E+01  0.11081736E+01  0.11081736E+01  0.82381259E-01  0.00000000E+00  0.00000000E+00  0.00000000E+00
  0.16245000E+01  0.11865425E+01  0.11865425E+01  0.83854278E-01  0.00000000E+00  0.00000000E+00  0.00000000E+00
  0.16623000E+01  0.13069595E+01  0.13069595E+01  0.95302333E-01  0.00000000E+00  0.00000000E+00  0.00000000E+00
  0.17001000E+01  0.14534837E+01  0.14534837E+01  0.11597822E+00  0.00000000E+00  0.00000000E+00  0.00000000E+00
  0.17379000E+01  0.16091300E+01  0.16091300E+01  0.14458734E+00  0.00000000E+00  0.00000000E+00  0.00000000E+00
  0.17756000E+01  0.17575444E+01  0.17575444E+01  0.17888616E+00  0.00000000E+00  0.00000000E+00  0.00000000E+00
  0.18134000E+01  0.18843916E+01  0.18843916E+01  0.21563088E+00  0.00000000E+00  0.00000000E+00  0.00000000E+00
  0.18512000E+01  0.19786927E+01  0.19786927E+01  0.25069212E+00  0.00000000E+00  0.00000000E+00  0.00000000E+00
  0.18890000E+01  0.20336279E+01  0.20336279E+01  0.27966037E+00  0.00000000E+00  0.00000000E+00  0.00000000E+00
  0.19268000E+01  0.20468047E+01  0.20468047E+01  0.29863862E+00  0.00000000E+00  0.00000000E+00  0.00000000E+00
  0.19645000E+01  0.20202259E+01  0.20202259E+01  0.30486052E+00  0.00000000E+00  0.00000000E+00  0.00000000E+00
  0.20023000E+01  0.19597261E+01  0.19597261E+01  0.29758030E+00  0.00000000E+00  0.00000000E+00  0.00000000E+00
  0.20401000E+01  0.18743301E+01  0.18743301E+01  0.27842263E+00  0.00000000E+00  0.00000000E+00  0.00000000E+00
  0.20779000E+01  0.17752376E+01  0.17752376E+01  0.25087735E+00  0.00000000E+00  0.00000000E+00  0.00000000E+00
  0.21157000E+01  0.16739675E+01  0.16739675E+01  0.21948433E+00  0.00000000E+00  0.00000000E+00  0.00000000E+00
  0.21534000E+01  0.15802912E+01  0.15802912E+01  0.18838260E+00  0.00000000E+00  0.00000000E+00  0.00000000E+00
  0.21912000E+01  0.15005933E+01  0.15005933E+01  0.16037104E+00  0.00000000E+00  0.00000000E+00  0.00000000E+00
  0.22290000E+01  0.14380410E+01  0.14380410E+01  0.13664669E+00  0.00000000E+00  0.00000000E+00  0.00000000E+00
  0.22668000E+01  0.13940827E+01  0.13940827E+01  0.11722179E+00  0.00000000E+00  0.00000000E+00  0.00000000E+00
  0.23045000E+01  0.13698319E+01  0.13698319E+01  0.10166688E+00  0.00000000E+00  0.00000000E+00  0.00000000E+00
  0.23423000E+01  0.13661546E+01  0.13661546E+01  0.89380631E-01  0.00000000E+00  0.00000000E+00  0.00000000E+00
  0.23801000E+01  0.13823005E+01  0.13823005E+01  0.79878881E-01  0.00000000E+00  0.00000000E+00  0.00000000E+00
  0.24179000E+01  0.14145388E+01  0.14145388E+01  0.72891191E-01  0.00000000E+00  0.00000000E+00  0.00000000E+00
  0.24557000E+01  0.14559985E+01  0.14559985E+01  0.68136411E-01  0.00000000E+00  0.00000000E+00  0.00000000E+00
  0.24934000E+01  0.14979960E+01  0.14979960E+01  0.65527990E-01  0.00000000E+00  0.00000000E+00  0.00000000E+00
  0.25312000E+01  0.15326861E+01  0.15326861E+01  0.65126326E-01  0.00000000E+00  0.00000000E+00  0.00000000E+00
  0.25690000E+01  0.15556594E+01  0.15556594E+01  0.67141041E-01  0.00000000E+00  0.00000000E+00  0.00000000E+00
  0.26068000E+01  0.15678346E+01  0.15678346E+01  0.71929924E-01  0.00000000E+00  0.00000000E+00  0.00000000E+00
  0.26446000E+01  0.15749951E+01  0.15749951E+01  0.79850648E-01  0.00000000E+00  0.00000000E+00  0.00000000E+00
  0.26823000E+01  0.15851290E+01  0.15851290E+01  0.91154352E-01  0.00000000E+00  0.00000000E+00  0.00000000E+00
  0.27201000E+01  0.16041930E+01  0.16041930E+01  0.10560515E+00  0.00000000E+00  0.00000000E+00  0.00000000E+00
  0.27579000E+01  0.16328011E+01  0.16328011E+01  0.12273343E+00  0.00000000E+00  0.00000000E+00  0.00000000E+00
  0.27957000E+01  0.16655099E+01  0.16655099E+01  0.14146903E+00  0.00000000E+00  0.00000000E+00  0.00000000E+00
  0.28335000E+01  0.16925750E+01  0.16925750E+01  0.16048543E+00  0.00000000E+00  0.00000000E+00  0.00000000E+00
  0.28712000E+01  0.17028203E+01  0.17028203E+01  0.17827520E+00  0.00000000E+00  0.00000000E+00  0.00000000E+00
  0.29090000E+01  0.16867266E+01  0.16867266E+01  0.19347208E+00  0.00000000E+00  0.00000000E+00  0.00000000E+00
  0.29468000E+01  0.16390426E+01  0.16390426E+01  0.20516183E+00  0.00000000E+00  0.00000000E+00  0.00000000E+00
  0.29846000E+01  0.15612904E+01  0.15612904E+01  0.21327141E+00  0.00000000E+00  0.00000000E+00  0.00000000E+00
  0.30224000E+01  0.14636845E+01  0.14636845E+01  0.21879474E+00  0.00000000E+00  0.00000000E+00  0.00000000E+00
  0.30601000E+01  0.13648088E+01  0.13648088E+01  0.22361965E+00  0.00000000E+00  0.00000000E+00  0.00000000E+00
  0.30979000E+01  0.12864155E+01  0.12864155E+01  0.22997202E+00  0.00000000E+00  0.00000000E+00  0.00000000E+00
  0.31357000E+01  0.12446963E+01  0.12446963E+01  0.23958481E+00  0.00000000E+00  0.00000000E+00  0.00000000E+00
  0.31735000E+01  0.12442633E+01  0.12442633E+01  0.25295292E+00  0.00000000E+00  0.00000000E+00  0.00000000E+00
  0.32113000E+01  0.12789559E+01  0.12789559E+01  0.26890945E+00  0.00000000E+00  0.00000000E+00  0.00000000E+00
  0.32490000E+01  0.13368209E+01  0.13368209E+01  0.28509100E+00  0.00000000E+00  0.00000000E+00  0.00000000E+00
  0.32868000E+01  0.14053210E+01  0.14053210E+01  0.29847203E+00  0.00000000E+00  0.00000000E+00  0.00000000E+00
  0.33246000E+01  0.14754489E+01  0.14754489E+01  0.30667329E+00  0.00000000E+00  0.00000000E+00  0.00000000E+00
  0.33624000E+01  0.15441513E+01  0.15441513E+01  0.30865805E+00  0.00000000E+00  0.00000000E+00  0.00000000E+00
  0.34002000E+01  0.16145807E+01  0.16145807E+01  0.30535631E+00  0.00000000E+00  0.00000000E+00  0.00000000E+00
  0.34379000E+01  0.16938811E+01  0.16938811E+01  0.29918676E+00  0.00000000E+00  0.00000000E+00  0.00000000E+00
  0.34757000E+01  0.17890261E+01  0.17890261E+01  0.29329079E+00  0.00000000E+00  0.00000000E+00  0.00000000E+00
  0.35135000E+01  0.19027834E+01  0.19027834E+01  0.29020363E+00  0.00000000E+00  0.00000000E+00  0.00000000E+00
  0.35513000E+01  0.20318521E+01  0.20318521E+01  0.29106941E+00  0.00000000E+00  0.00000000E+00  0.00000000E+00
  0.35891000E+01  0.21675824E+01  0.21675824E+01  0.29558453E+00  0.00000000E+00  0.00000000E+00  0.00000000E+00
  0.36268000E+01  0.22984667E+01  0.22984667E+01  0.30254854E+00  0.00000000E+00  0.00000000E+00  0.00000000E+00
  0.36646000E+01  0.24130623E+01  0.24130623E+01  0.31038732E+00  0.00000000E+00  0.00000000E+00  0.00000000E+00
  0.37024000E+01  0.25024118E+01  0.25024118E+01  0.31774404E+00  0.00000000E+00  0.00000000E+00  0.00000000E+00
  0.37402000E+01  0.25613884E+01  0.25613884E+01  0.32345242E+00  0.00000000E+00  0.00000000E+00  0.00000000E+00
  0.37779000E+01  0.25890229E+01  0.25890229E+01  0.32666947E+00  0.00000000E+00  0.00000000E+00  0.00000000E+00
  0.38157000E+01  0.25878277E+01  0.25878277E+01  0.32660733E+00  0.00000000E+00  0.00000000E+00  0.00000000E+00
  0.38535000E+01  0.25627658E+01  0.25627658E+01  0.32253084E+00  0.00000000E+00  0.00000000E+00  0.00000000E+00
  0.38913000E+01  0.25204191E+01  0.25204191E+01  0.31413186E+00  0.00000000E+00  0.00000000E+00  0.00000000E+00
  0.39291000E+01  0.24686449E+01  0.24686449E+01  0.30164397E+00  0.00000000E+00  0.00000000E+00  0.00000000E+00
  0.39668000E+01  0.24170241E+01  0.24170241E+01  0.28639984E+00  0.00000000E+00  0.00000000E+00  0.00000000E+00
  0.40046000E+01  0.23769603E+01  0.23769603E+01  0.27054303E+00  0.00000000E+00  0.00000000E+00  0.00000000E+00
  0.40424000E+01  0.23607726E+01  0.23607726E+01  0.25686350E+00  0.00000000E+00  0.00000000E+00  0.00000000E+00
  0.40802000E+01  0.23788529E+01  0.23788529E+01  0.24768021E+00  0.00000000E+00  0.00000000E+00  0.00000000E+00
  0.41180000E+01  0.24362825E+01  0.24362825E+01  0.24414772E+00  0.00000000E+00  0.00000000E+00  0.00000000E+00
  0.41557000E+01  0.25307772E+01  0.25307772E+01  0.24568415E+00  0.00000000E+00  0.00000000E+00  0.00000000E+00
  0.41935000E+01  0.26531044E+01  0.26531044E+01  0.25012922E+00  0.00000000E+00  0.00000000E+00  0.00000000E+00
  0.42313000E+01  0.27892320E+01  0.27892320E+01  0.25432686E+00  0.00000000E+00  0.00000000E+00  0.00000000E+00
  0.42691000E+01  0.29231825E+01  0.29231825E+01  0.25492616E+00  0.00000000E+00  0.00000000E+00  0.00000000E+00
  0.43069000E+01  0.30396478E+01  0.30396478E+01  0.24937689E+00  0.00000000E+00  0.00000000E+00  0.00000000E+00
  0.43446000E+01  0.31260645E+01  0.31260645E+01  0.23661927E+00  0.00000000E+00  0.00000000E+00  0.00000000E+00
  0.43824000E+01  0.31739015E+01  0.31739015E+01  0.21765616E+00  0.00000000E+00  0.00000000E+00  0.00000000E+00
  0.44202000E+01  0.31793553E+01  0.31793553E+01  0.19518916E+00  0.00000000E+00  0.00000000E+00  0.00000000E+00
  0.44580000E+01  0.31432926E+01  0.31432926E+01  0.17309009E+00  0.00000000E+00  0.00000000E+00  0.00000000E+00
  0.44958000E+01  0.30709131E+01  0.30709131E+01  0.15502637E+00  0.00000000E+00  0.00000000E+00  0.00000000E+00
  0.45335000E+01  0.29711315E+01  0.29711315E+01  0.14350633E+00  0.00000000E+00  0.00000000E+00  0.00000000E+00
  0.45713000E+01  0.28557159E+01  0.28557159E+01  0.13938303E+00  0.00000000E+00  0.00000000E+00  0.00000000E+00
  0.46091000E+01  0.27378340E+01  0.27378340E+01  0.14181166E+00  0.00000000E+00  0.00000000E+00  0.00000000E+00
  0.46469000E+01  0.26299605E+01  0.26299605E+01  0.14869521E+00  0.00000000E+00  0.00000000E+00  0.00000000E+00
  0.46847000E+01  0.25407885E+01  0.25407885E+01  0.15728656E+00  0.00000000E+00  0.00000000E+00  0.00000000E+00
  0.47224000E+01  0.24730046E+01  0.24730046E+01  0.16456043E+00  0.00000000E+00  0.00000000E+00  0.00000000E+00
  0.47602000E+01  0.24228277E+01  0.24228277E+01  0.16802374E+00  0.00000000E+00  0.00000000E+00  0.00000000E+00
  0.47980000E+01  0.23821763E+01  0.23821763E+01  0.16590962E+00  0.00000000E+00  0.00000000E+00  0.00000000E+00
  0.48358000E+01  0.23420557E+01  0.23420557E+01  0.15778445E+00  0.00000000E+00  0.00000000E+00  0.00000000E+00
  0.48736000E+01  0.22954983E+01  0.22954983E+01  0.14458676E+00  0.00000000E+00  0.00000000E+00  0.00000000E+00
  0.49113000E+01  0.22394192E+01  0.22394192E+01  0.12843730E+00  0.00000000E+00  0.00000000E+00  0.00000000E+00
  0.49491000E+01  0.21754007E+01  0.21754007E+01  0.11208600E+00  0.00000000E+00  0.00000000E+00  0.00000000E+00
  0.49869000E+01  0.21093944E+01  0.21093944E+01  0.98129354E-01  0.00000000E+00  0.00000000E+00  0.00000000E+00
  0.50247000E+01  0.20502013E+01  0.20502013E+01  0.88374710E-01  0.00000000E+00  0.00000000E+00  0.00000000E+00
  0.50625000E+01  0.20067222E+01  0.20067222E+01  0.83534527E-01  0.00000000E+00  0.00000000E+00  0.00000000E+00
  0.51002000E+01  0.19846399E+01  0.19846399E+01  0.83130348E-01  0.00000000E+00  0.00000000E+00  0.00000000E+00
  0.51380000E+01  0.19843109E+01  0.19843109E+01  0.86031014E-01  0.00000000E+00  0.00000000E+00  0.00000000E+00
  0.51758000E+01  0.20011106E+01  0.20011106E+01  0.90652583E-01  0.00000000E+00  0.00000000E+00  0.00000000E+00
  0.52136000E+01  0.20276455E+01  0.20276455E+01  0.95359474E-01  0.00000000E+00  0.00000000E+00  0.00000000E+00
  0.52514000E+01  0.20559979E+01  0.20559979E+01  0.98800398E-01  0.00000000E+00  0.00000000E+00  0.00000000E+00
  0.52891000E+01  0.20791564E+01  0.20791564E+01  0.99980966E-01  0.00000000E+00  0.00000000E+00  0.00000000E+00
  0.53269000E+01  0.20917262E+01  0.20917262E+01  0.98508797E-01  0.00000000E+00  0.00000000E+00  0.00000000E+00
  0.53647000E+01  0.20900740E+01  0.20900740E+01  0.94452951E-01  0.00000000E+00  0.00000000E+00  0.00000000E+00
  0.54025000E+01  0.20723104E+01  0.20723104E+01  0.88421799E-01  0.00000000E+00  0.00000000E+00  0.00000000E+00
  0.54402000E+01  0.20381658E+01  0.20381658E+01  0.81410583E-01  0.00000000E+00  0.00000000E+00  0.00000000E+00
  0.54780000E+01  0.19891107E+01  0.19891107E+01  0.74492887E-01  0.00000000E+00  0.00000000E+00  0.00000000E+00
  0.55158000E+01  0.19284084E+01  0.19284084E+01  0.68799331E-01  0.00000000E+00  0.00000000E+00  0.00000000E+00
  0.55536000E+01  0.18609153E+01  0.18609153E+01  0.64944247E-01  0.00000000E+00  0.00000000E+00  0.00000000E+00
  0.55914000E+01  0.17925780E+01  0.17925780E+01  0.63190458E-01  0.00000000E+00  0.00000000E+00  0.00000000E+00
  0.56291000E+01  0.17294160E+01  0.17294160E+01  0.63153256E-01  0.00000000E+00  0.00000000E+00  0.00000000E+00
  0.56669000E+01  0.16759151E+01  0.16759151E+01  0.64111291E-01  0.00000000E+00  0.00000000E+00  0.00000000E+00
  0.57047000E+01  0.16338642E+01  0.16338642E+01  0.65105659E-01  0.00000000E+00  0.00000000E+00  0.00000000E+00
  0.57425000E+01  0.16018440E+01  0.16018440E+01  0.65299960E-01  0.00000000E+00  0.00000000E+00  0.00000000E+00
  0.57803000E+01  0.15760706E+01  0.15760706E+01  0.64072773E-01  0.00000000E+00  0.00000000E+00  0.00000000E+00
  0.58180000E+01  0.15521446E+01  0.15521446E+01  0.61223175E-01  0.00000000E+00  0.00000000E+00  0.00000000E+00
  0.58558000E+01  0.15260361E+01  0.15260361E+01  0.56986793E-01  0.00000000E+00  0.00000000E+00  0.00000000E+00
  0.58936000E+01  0.14953392E+01  0.14953392E+01  0.51849276E-01  0.00000000E+00  0.00000000E+00  0.00000000E+00
  0.59314000E+01  0.14590857E+01  0.14590857E+01  0.46479651E-01  0.00000000E+00  0.00000000E+00  0.00000000E+00
  0.59692000E+01  0.14182253E+01  0.14182253E+01  0.41554088E-01  0.00000000E+00  0.00000000E+00  0.00000000E+00
  0.60069000E+01  0.13750585E+01  0.13750585E+01  0.37613730E-01  0.00000000E+00  0.00000000E+00  0.00000000E+00
  0.60447000E+01  0.13332682E+01  0.13332682E+01  0.35088653E-01  0.00000000E+00  0.00000000E+00  0.00000000E+00
  0.60825000E+01  0.12971649E+01  0.12971649E+01  0.34170732E-01  0.00000000E+00  0.00000000E+00  0.00000000E+00
  0.61203000E+01  0.12707998E+01  0.12707998E+01  0.34851284E-01  0.00000000E+00  0.00000000E+00  0.00000000E+00
  0.61581000E+01  0.12566367E+01  0.12566367E+01  0.36799984E-01  0.00000000E+00  0.00000000E+00  0.00000000E+00
  0.61958000E+01  0.12545124E+01  0.12545124E+01  0.39536547E-01  0.00000000E+00  0.00000000E+00  0.00000000E+00
  0.62336000E+01  0.12618864E+01  0.12618864E+01  0.42331690E-01  0.00000000E+00  0.00000000E+00  0.00000000E+00
  0.62714000E+01  0.12745919E+01  0.12745919E+01  0.44550104E-01  0.00000000E+00  0.00000000E+00  0.00000000E+00
  0.63092000E+01  0.12880032E+01  0.12880032E+01  0.45611954E-01  0.00000000E+00  0.00000000E+00  0.00000000E+00
  0.63470000E+01  0.12981979E+01  0.12981979E+01  0.45279450E-01  0.00000000E+00  0.00000000E+00  0.00000000E+00
  0.63847000E+01  0.13026305E+01  0.13026305E+01  0.43597836E-01  0.00000000E+00  0.00000000E+00  0.00000000E+00
  0.64225000E+01  0.13001046E+01  0.13001046E+01  0.41000972E-01  0.00000000E+00  0.00000000E+00  0.00000000E+00
  0.64603000E+01  0.12910438E+01  0.12910438E+01  0.38095554E-01  0.00000000E+00  0.00000000E+00  0.00000000E+00
  0.64981000E+01  0.12767266E+01  0.12767266E+01  0.35493834E-01  0.00000000E+00  0.00000000E+00  0.00000000E+00
  0.65359000E+01  0.12588537E+01  0.12588537E+01  0.33587293E-01  0.00000000E+00  0.00000000E+00  0.00000000E+00
  0.65736000E+01  0.12386187E+01  0.12386187E+01  0.32442900E-01  0.00000000E+00  0.00000000E+00  0.00000000E+00
  0.66114000E+01  0.12165886E+01  0.12165886E+01  0.31968843E-01  0.00000000E+00  0.00000000E+00  0.00000000E+00
