#  frequency dependent      REAL DIELECTRIC FUNCTION (independent particle, no local field effects)
#     E(ev)      X         Y         Z        XY        YZ        ZX
#  --------------------------------------------------------------------------------------
    0.000000   21.037071   21.037071    2.751215   -0.000000   -0.000000   -0.000000
    0.037779   21.058285   21.058285    2.751410   -0.000000   -0.000000   -0.000000
    0.075559   21.122436   21.122436    2.751996   -0.000000   -0.000000   -0.000000
    0.113338   21.231101   21.231101    2.752976   -0.000000   -0.000000   -0.000000
    0.151118   21.387043   21.387043    2.754356   -0.000000   -0.000000   -0.000000
    0.188897   21.594286   21.594286    2.756146   -0.000000   -0.000000   -0.000000
    0.226677   21.858422   21.858422    2.758356   -0.000000   -0.000000   -0.000000
    0.264456   22.186762   22.186762    2.761001   -0.000000   -0.000000   -0.000000
    0.302236   22.588517   22.588517    2.764098   -0.000000   -0.000000   -0.000000
    0.340015   23.074178   23.074178    2.767670   -0.000000   -0.000000   -0.000000
    0.377795   23.653035   23.653035    2.771742   -0.000000   -0.000000   -0.000000
    0.415574   24.324404   24.324404    2.776346   -0.000000   -0.000000   -0.000000
    0.453354   25.050358   25.050358    2.781518   -0.000000   -0.000000   -0.000000
    0.491133   25.683915   25.683915    2.787305   -0.000000   -0.000000   -0.000000
    0.528913   25.856727   25.856727    2.793757   -0.000000   -0.000000   -0.000000
    0.566692   25.120107   25.120107    2.800937   -0.000000   -0.000000   -0.000000
    0.604472   23.643592   23.643592    2.808919   -0.000000   -0.000000   -0.000000
    0.642251   22.192245   22.192245    2.817790   -0.000000   -0.000000   -0.000000
    0.680031   21.152858   21.152858    2.827656    0.000000   -0.000000   -0.000000
    0.717810   20.393649   20.393649    2.838639    0.000000   -0.000000   -0.000000
    0.755590   19.737168   19.737168    2.850876    0.000000   -0.000000   -0.000000
    0.793369   19.103670   19.103670    2.864485    0.000000   -0.000000   -0.000000
    0.831149   18.479730   18.479730    2.879484    0.000000   -0.000000   -0.000000
    0.868928   17.899953   17.899953    2.895627    0.000000   -0.000000   -0.000000
    0.906708   17.424756   17.424756    2.912428    0.000000   -0.000000   -0.000000
    0.944487   17.068566   17.068566    2.929751    0.000000   -0.000000   -0.000000
    0.982267   16.791826   16.791826    2.947997    0.000000   -0.000000   -0.000000
    1.020046   16.562607   16.562607    2.967629    0.000000   -0.000000   -0.000000
    1.057826   16.368944   16.368944    2.988961    0.000000   -0.000000   -0.000000
    1.095605   16.204608   16.204608    3.011922    0.000000   -0.000000   -0.000000
    1.133385   16.050772   16.050772    3.035268   -0.000000   -0.000000   -0.000000
    1.171164   15.843792   15.843792    3.054481    0.000000   -0.000000   -0.000000
    1.208944   15.435357   15.435357    3.058786    0.000000   -0.000000   -0.000000
    1.246723   14.689095   14.689095    3.037091    0.000000   -0.000000   -0.000000
    1.284503   13.772794   13.772794    2.997696    0.000000   -0.000000    0.000000
    1.322282   12.961773   12.961773    2.957032    0.000000   -0.000000    0.000000
    1.360062   12.305709   12.305709    2.918794    0.000000   -0.000000    0.000000
    1.397841   11.752684   11.752684    2.882593    0.000000   -0.000000    0.000000
    1.435621   11.258853   11.258852    2.849454    0.000000   -0.000000    0.000000
    1.473400   10.811222   10.811222    2.820589    0.000000   -0.000000    0.000000
    1.511180   10.406894   10.406894    2.795922    0.000000   -0.000000    0.000000
    1.548959   10.038362   10.038362    2.774369    0.000000    0.000000    0.000000
    1.586739    9.698724    9.698724    2.755113    0.000000    0.000000    0.000000
    1.624518    9.383241    9.383241    2.737878    0.000000    0.000000    0.000000
    1.662298    9.087094    9.087094    2.722829    0.000000    0.000000    0.000000
    1.700077    8.804529    8.804529    2.710401    0.000000    0.000000    0.000000
    1.737857    8.531820    8.531820    2.700850    0.000000    0.000000    0.000000
    1.775636    8.268980    8.268980    2.694070    0.000000    0.000000    0.000000
    1.813416    8.017308    8.017308    2.689853    0.000000    0.000000   -0.000000
    1.851195    7.777329    7.777329    2.687938    0.000000    0.000000   -0.000000
    1.888975    7.548265    7.548265    2.687958    0.000000    0.000000   -0.000000
    1.926754    7.327977    7.327977    2.689388    0.000000    0.000000   -0.000000
    1.964534    7.112591    7.112591    2.691585    0.000000    0.000000   -0.000000
    2.002313    6.895558    6.895557    2.693991    0.000000    0.000000   -0.000000
    2.040093    6.665418    6.665418    2.696253    0.000000    0.000000    0.000000
    2.077872    6.406494    6.406494    2.698199   -0.000000    0.000000    0.000000
    2.115652    6.110586    6.110586    2.699745   -0.000000    0.000000    0.000000
    2.153431    5.784007    5.784007    2.700841   -0.000000    0.000000   -0.000000
    2.191211    5.445189    5.445189    2.701433   -0.000000   -0.000000   -0.000000
    2.228990    5.120170    5.120170    2.701479   -0.000000   -0.000000   -0.000000
    2.266770    4.822217    4.822217    2.700947   -0.000000   -0.000000   -0.000000
    2.304549    4.545781    4.545782    2.699830   -0.000000   -0.000000    0.000000
    2.342329    4.282728    4.282728    2.698136   -0.000000   -0.000000    0.000000
    2.380108    4.029799    4.029799    2.695886    0.000000   -0.000000   -0.000000
    2.417888    3.791083    3.791083    2.693108    0.000000   -0.000000   -0.000000
    2.455667    3.579868    3.579868    2.689852    0.000000   -0.000000   -0.000000
    2.493447    3.412534    3.412534    2.686200   -0.000000   -0.000000   -0.000000
    2.531226    3.296583    3.296583    2.682258   -0.000000   -0.000000   -0.000000
    2.569006    3.225556    3.225556    2.678165    0.000000    0.000000   -0.000000
    2.606785    3.184836    3.184836    2.674073    0.000000    0.000000   -0.000000
    2.644565    3.162131    3.162131    2.670152    0.000000    0.000000   -0.000000
    2.682344    3.152246    3.152246    2.666549    0.000000    0.000000   -0.000000
    2.720124    3.154236    3.154236    2.663314    0.000000    0.000000   -0.000000
    2.757903    3.166570    3.166570    2.660210    0.000000    0.000000   -0.000000
    2.795683    3.184230    3.184230    2.656503    0.000000    0.000000   -0.000000
    2.833462    3.202169    3.202169    2.651151    0.000000    0.000000   -0.000000
    2.871242    3.221337    3.221337    2.643435    0.000000   -0.000000    0.000000
    2.909021    3.246113    3.246113    2.633160    0.000000   -0.000000    0.000000
    2.946801    3.278497    3.278497    2.620374    0.000000   -0.000000    0.000000
    2.984580    3.318810    3.318810    2.605293    0.000000   -0.000000    0.000000
    3.022360    3.368914    3.368914    2.588461    0.000000   -0.000000    0.000000
    3.060139    3.433470    3.433470    2.570794    0.000000    0.000000    0.000000
    3.097919    3.518841    3.518841    2.553465    0.000000    0.000000    0.000000
    3.135698    3.629839    3.629839    2.537845    0.000000    0.000000    0.000000
    3.173478    3.766326    3.766326    2.525381    0.000000    0.000000    0.000000
    3.211257    3.918954    3.918954    2.517314    0.000000    0.000000    0.000000
    3.249037    4.060467    4.060467    2.514193    0.000000    0.000000    0.000000
    3.286816    4.149419    4.149419    2.515163    0.000000    0.000000    0.000000
    3.324596    4.169197    4.169197    2.517735    0.000000    0.000000    0.000000
    3.362375    4.139514    4.139514    2.519384    0.000000    0.000000    0.000000
    3.400155    4.083877    4.083877    2.519160    0.000000    0.000000    0.000000
    3.437934    4.014795    4.014795    2.517364    0.000000    0.000000    0.000000
    3.475714    3.933654    3.933654    2.514587    0.000000    0.000000    0.000000
    3.513493    3.828441    3.828441    2.510516    0.000000    0.000000    0.000000
    3.551273    3.668645    3.668645    2.502108    0.000000   -0.000000    0.000000
    3.589052    3.424647    3.424647    2.484179    0.000000   -0.000000    0.000000
    3.626832    3.130292    3.130292    2.455739    0.000000   -0.000000    0.000000
    3.664611    2.850091    2.850091    2.421292    0.000000   -0.000000    0.000000
    3.702391    2.600105    2.600104    2.384612    0.000000   -0.000000    0.000000
    3.740170    2.376576    2.376576    2.347394    0.000000   -0.000000    0.000000
    3.777950    2.186966    2.186966    2.311428    0.000000   -0.000000    0.000000
    3.815729    2.038569    2.038569    2.278704    0.000000   -0.000000    0.000000
    3.853509    1.928646    1.928646    2.250213    0.000000   -0.000000    0.000000
    3.891288    1.844393    1.844393    2.225355    0.000000   -0.000000    0.000000
    3.929068    1.768817    1.768817    2.202818    0.000000   -0.000000    0.000000
    3.966847    1.686610    1.686610    2.181550    0.000000   -0.000000    0.000000
    4.004627    1.582326    1.582326    2.160698    0.000000   -0.000000    0.000000
    4.042406    1.433141    1.433141    2.139321    0.000000    0.000000    0.000000
    4.080186    1.206567    1.206567    2.116557    0.000000   -0.000000    0.000000
    4.117965    0.866224    0.866224    2.092160    0.000000   -0.000000    0.000000
    4.155745    0.380361    0.380361    2.066789   -0.000000   -0.000000    0.000000
    4.193524   -0.267334   -0.267334    2.041911   -0.000000   -0.000000    0.000000
    4.231304   -1.058875   -1.058875    2.019716   -0.000000    0.000000    0.000000
    4.269083   -1.931014   -1.931014    2.002453   -0.000000    0.000000    0.000000
    4.306863   -2.811451   -2.811451    1.990556   -0.000000    0.000000    0.000000
    4.344642   -3.638055   -3.638055    1.982462   -0.000000    0.000000    0.000000
    4.382422   -4.343552   -4.343552    1.976448   -0.000000    0.000000    0.000000
    4.420201   -4.888406   -4.888406    1.971484   -0.000000    0.000000    0.000000
    4.457981   -5.281355   -5.281355    1.967120   -0.000000    0.000000    0.000000
    4.495760   -5.542252   -5.542252    1.963214   -0.000000    0.000000    0.000000
    4.533540   -5.690131   -5.690131    1.959764   -0.000000    0.000000    0.000000
    4.571319   -5.758514   -5.758514    1.956820   -0.000000    0.000000    0.000000
    4.609099   -5.782091   -5.782091    1.954447   -0.000000    0.000000    0.000000
    4.646878   -5.779768   -5.779768    1.952710   -0.000000    0.000000    0.000000
    4.684658   -5.758551   -5.758551    1.951673   -0.000000    0.000000    0.000000
    4.722437   -5.721644   -5.721644    1.951393   -0.000000    0.000000    0.000000
    4.760217   -5.672649   -5.672649    1.951891   -0.000000    0.000000    0.000000
    4.797996   -5.615593   -5.615592    1.953120   -0.000000    0.000000    0.000000
    4.835776   -5.553295   -5.553295    1.954959   -0.000000    0.000000    0.000000
    4.873555   -5.487144   -5.487144    1.957273   -0.000000    0.000000    0.000000
    4.911335   -5.417701   -5.417701    1.959957   -0.000000    0.000000    0.000000
    4.949114   -5.345273   -5.345273    1.962962   -0.000000    0.000000    0.000000
    4.986894   -5.270159   -5.270159    1.966281   -0.000000    0.000000    0.000000
    5.024673   -5.192724   -5.192724    1.969960   -0.000000    0.000000    0.000000
    5.062453   -5.113496   -5.113496    1.974101   -0.000000    0.000000    0.000000
    5.100232   -5.033101   -5.033101    1.978847   -0.000000    0.000000    0.000000
    5.138012   -4.951970   -4.951970    1.984346   -0.000000    0.000000    0.000000
    5.175791   -4.869741   -4.869741    1.990688   -0.000000    0.000000    0.000000
    5.213570   -4.785375   -4.785375    1.997871   -0.000000    0.000000    0.000000
    5.251350   -4.698205   -4.698205    2.005816   -0.000000    0.000000    0.000000
    5.289129   -4.608350   -4.608350    2.014411   -0.000000    0.000000    0.000000
    5.326909   -4.516550   -4.516550    2.023516   -0.000000    0.000000    0.000000
    5.364688   -4.424315   -4.424315    2.032960   -0.000000    0.000000    0.000000
    5.402468   -4.333329   -4.333329    2.042582   -0.000000    0.000000    0.000000
    5.440247   -4.244625   -4.244625    2.052290   -0.000000    0.000000    0.000000
    5.478027   -4.158619   -4.158619    2.062046   -0.000000    0.000000    0.000000
    5.515806   -4.075455   -4.075455    2.071838   -0.000000    0.000000    0.000000
    5.553586   -3.995060   -3.995060    2.081663   -0.000000    0.000000    0.000000
    5.591365   -3.917198   -3.917198    2.091520   -0.000000    0.000000    0.000000
    5.629145   -3.841588   -3.841588    2.101409   -0.000000    0.000000    0.000000
    5.666924   -3.767994   -3.767994    2.111330   -0.000000    0.000000    0.000000
    5.704704   -3.696226   -3.696226    2.121282   -0.000000    0.000000    0.000000
    5.742483   -3.626157   -3.626157    2.131266   -0.000000    0.000000    0.000000
    5.780263   -3.557667   -3.557667    2.141284   -0.000000    0.000000    0.000000
    5.818042   -3.490627   -3.490627    2.151338   -0.000000    0.000000    0.000000
    5.855822   -3.424839   -3.424839    2.161430   -0.000000    0.000000    0.000000
    5.893601   -3.360087   -3.360087    2.171562    0.000000    0.000000    0.000000
    5.931381   -3.296139   -3.296139    2.181734    0.000000    0.000000    0.000000
    5.969160   -3.232779   -3.232779    2.191947    0.000000    0.000000    0.000000
    6.006940   -3.169813   -3.169813    2.202206    0.000000    0.000000    0.000000
    6.044719   -3.107075   -3.107075    2.212512    0.000000    0.000000    0.000000
    6.082499   -3.044442   -3.044442    2.222871    0.000000    0.000000    0.000000
    6.120278   -2.981845   -2.981845    2.233286    0.000000    0.000000    0.000000
    6.158058   -2.919291   -2.919291    2.243759   -0.000000    0.000000    0.000000
    6.195837   -2.856930   -2.856930    2.254294   -0.000000    0.000000    0.000000
    6.233617   -2.795002   -2.795002    2.264889   -0.000000    0.000000    0.000000
    6.271396   -2.733700   -2.733700    2.275545   -0.000000    0.000000    0.000000
    6.309176   -2.673120   -2.673120    2.286265   -0.000000    0.000000    0.000000
    6.346955   -2.613263   -2.613263    2.297047   -0.000000    0.000000    0.000000
    6.384735   -2.554074   -2.554074    2.307898   -0.000000    0.000000    0.000000
    6.422514   -2.495472   -2.495472    2.318820   -0.000000    0.000000    0.000000
    6.460294   -2.437381   -2.437381    2.329820   -0.000000    0.000000    0.000000
    6.498073   -2.379768   -2.379768    2.340903   -0.000000    0.000000    0.000000
    6.535853   -2.322664   -2.322664    2.352073   -0.000000    0.000000    0.000000
    6.573632   -2.266198   -2.266198    2.363336   -0.000000    0.000000    0.000000
    6.611412   -2.210571   -2.210571    2.374696   -0.000000    0.000000    0.000000
    6.649191   -2.156017   -2.156017    2.386157   -0.000000    0.000000    0.000000
    6.686971   -2.102683   -2.102683    2.397725   -0.000000    0.000000    0.000000
    6.724750   -2.050575   -2.050575    2.409404   -0.000000    0.000000    0.000000
    6.762530   -1.999578   -1.999578    2.421201   -0.000000    0.000000    0.000000
    6.800309   -1.949555   -1.949555    2.433120   -0.000000    0.000000    0.000000
    6.838089   -1.900406   -1.900406    2.445166   -0.000000    0.000000    0.000000
    6.875868   -1.852086   -1.852086    2.457347   -0.000000    0.000000    0.000000
    6.913648   -1.804589   -1.804589    2.469665   -0.000000    0.000000    0.000000
    6.951427   -1.757926   -1.757926    2.482126   -0.000000    0.000000    0.000000
    6.989207   -1.712105   -1.712105    2.494736   -0.000000    0.000000    0.000000
    7.026986   -1.667104   -1.667104    2.507501   -0.000000    0.000000    0.000000
    7.064766   -1.622898   -1.622898    2.520427   -0.000000    0.000000    0.000000
    7.102545   -1.579442   -1.579442    2.533522   -0.000000    0.000000    0.000000
    7.140325   -1.536689   -1.536689    2.546792   -0.000000    0.000000    0.000000
    7.178104   -1.494594   -1.494594    2.560247   -0.000000    0.000000    0.000000
    7.215884   -1.453120   -1.453120    2.573892   -0.000000    0.000000    0.000000
    7.253663   -1.412221   -1.412221    2.587738   -0.000000    0.000000    0.000000
    7.291443   -1.371875   -1.371875    2.601791   -0.000000    0.000000    0.000000
    7.329222   -1.332051   -1.332051    2.616059   -0.000000    0.000000    0.000000
    7.367002   -1.292731   -1.292731    2.630552   -0.000000    0.000000    0.000000
    7.404781   -1.253895   -1.253895    2.645280   -0.000000    0.000000    0.000000
    7.442561   -1.215527   -1.215527    2.660252   -0.000000    0.000000    0.000000
    7.480340   -1.177602   -1.177602    2.675483   -0.000000    0.000000    0.000000
    7.518120   -1.140105   -1.140105    2.690983   -0.000000    0.000000    0.000000
    7.555899   -1.103028   -1.103028    2.706761   -0.000000    0.000000    0.000000
    7.593679   -1.066363   -1.066363    2.722835   -0.000000    0.000000    0.000000
    7.631458   -1.030109   -1.030109    2.739216   -0.000000    0.000000    0.000000
    7.669238   -0.994267   -0.994267    2.755919   -0.000000    0.000000    0.000000
    7.707017   -0.958839   -0.958839    2.772958   -0.000000    0.000000    0.000000
    7.744797   -0.923830   -0.923830    2.790346   -0.000000    0.000000    0.000000
    7.782576   -0.889236   -0.889236    2.808102   -0.000000    0.000000    0.000000
    7.820356   -0.855059   -0.855059    2.826234   -0.000000    0.000000    0.000000
    7.858135   -0.821300   -0.821300    2.844758   -0.000000    0.000000    0.000000
    7.895915   -0.787958   -0.787958    2.863687   -0.000000    0.000000    0.000000
    7.933694   -0.755036   -0.755036    2.883024   -0.000000    0.000000    0.000000
    7.971474   -0.722532   -0.722532    2.902780   -0.000000    0.000000    0.000000
    8.009253   -0.690439   -0.690439    2.922968   -0.000000    0.000000    0.000000
    8.047033   -0.658743   -0.658743    2.943605   -0.000000    0.000000    0.000000
    8.084812   -0.627445   -0.627445    2.964708   -0.000000    0.000000    0.000000
    8.122592   -0.596536   -0.596536    2.986299   -0.000000    0.000000    0.000000
    8.160371   -0.566015   -0.566015    3.008405   -0.000000    0.000000    0.000000
    8.198151   -0.535871   -0.535871    3.031049   -0.000000    0.000000    0.000000
    8.235930   -0.506090   -0.506090    3.054263   -0.000000    0.000000    0.000000
    8.273710   -0.476648   -0.476648    3.078078   -0.000000    0.000000    0.000000
    8.311489   -0.447520   -0.447520    3.102525   -0.000000    0.000000    0.000000
    8.349269   -0.418680   -0.418680    3.127642   -0.000000    0.000000    0.000000
    8.387048   -0.390103   -0.390103    3.153480   -0.000000    0.000000    0.000000
    8.424828   -0.361775   -0.361775    3.180091    0.000000    0.000000    0.000000
    8.462607   -0.333685   -0.333685    3.207533    0.000000    0.000000    0.000000
    8.500387   -0.305817   -0.305817    3.235873    0.000000    0.000000    0.000000
    8.538166   -0.278153   -0.278153    3.265187    0.000000    0.000000    0.000000
    8.575946   -0.250674   -0.250674    3.295550    0.000000    0.000000    0.000000
    8.613725   -0.223360   -0.223360    3.327043    0.000000    0.000000    0.000000
    8.651505   -0.196193   -0.196193    3.359714    0.000000    0.000000    0.000000
    8.689284   -0.169160   -0.169160    3.393541   -0.000000    0.000000    0.000000
    8.727064   -0.142249   -0.142249    3.428407   -0.000000    0.000000    0.000000
