#K-Path(1/A)         Spin-Up(eV)   Spin-down(eV)
# NKPTS & NBANDS: 200  20
# Band-Index    1
   0.00000    -18.424185    -18.424185
   0.03756    -18.414291    -18.414291
   0.07513    -18.421430    -18.421430
   0.11269    -18.436005    -18.436005
   0.15025    -18.454220    -18.454220
   0.18782    -18.475650    -18.475650
   0.22538    -18.501466    -18.501466
   0.26295    -18.531071    -18.531071
   0.30051    -18.564771    -18.564771
   0.33807    -18.602495    -18.602495
   0.37564    -18.642729    -18.642729
   0.41320    -18.688086    -18.688086
   0.45076    -18.737522    -18.737522
   0.48833    -18.789463    -18.789463
   0.52589    -18.844193    -18.844194
   0.56345    -18.900073    -18.900073
   0.60102    -18.959219    -18.959219
   0.63858    -19.019905    -19.019905
   0.67614    -19.081999    -19.081999
   0.71371    -19.144430    -19.144430
   0.75127    -19.207038    -19.207038
   0.78884    -19.269368    -19.269368
   0.82640    -19.330406    -19.330406
   0.86396    -19.390592    -19.390592
   0.90153    -19.449531    -19.449531
   0.93909    -19.507805    -19.507805
   0.97665    -19.562210    -19.562210
   1.01422    -19.614244    -19.614244
   1.05178    -19.663952    -19.663952
   1.08934    -19.709729    -19.709729
   1.12691    -19.751946    -19.751946
   1.16447    -19.790365    -19.790365
   1.20203    -19.825394    -19.825394
   1.23960    -19.855314    -19.855314
   1.27716    -19.881173    -19.881173
   1.31473    -19.902519    -19.902519
   1.35229    -19.919244    -19.919244
   1.38985    -19.931249    -19.931249
   1.42742    -19.938474    -19.938474
   1.46498    -19.940882    -19.940882
   1.46498    -19.940882    -19.940882
   1.48171    -19.940406    -19.940406
   1.49844    -19.938972    -19.938972
   1.51517    -19.936583    -19.936583
   1.53190    -19.933239    -19.933239
   1.54863    -19.928945    -19.928945
   1.56536    -19.923704    -19.923704
   1.58209    -19.917521    -19.917521
   1.59881    -19.910403    -19.910403
   1.61554    -19.902356    -19.902356
   1.63227    -19.893388    -19.893388
   1.64900    -19.883511    -19.883511
   1.66573    -19.872885    -19.872885
   1.68246    -19.861218    -19.861218
   1.69919    -19.848670    -19.848670
   1.71592    -19.835256    -19.835256
   1.73265    -19.820989    -19.820989
   1.74938    -19.805883    -19.805883
   1.76611    -19.789506    -19.789506
   1.78284    -19.772778    -19.772778
   1.79957    -19.755264    -19.755264
   1.81630    -19.736982    -19.736982
   1.83303    -19.717949    -19.717949
   1.84976    -19.697702    -19.697702
   1.86648    -19.677240    -19.677240
   1.88321    -19.656094    -19.656094
   1.89994    -19.634287    -19.634287
   1.91667    -19.611845    -19.611845
   1.93340    -19.587861    -19.587861
   1.95013    -19.564238    -19.564238
   1.96686    -19.540067    -19.540067
   1.98359    -19.515374    -19.515374
   2.00032    -19.490192    -19.490192
   2.01705    -19.464551    -19.464551
   2.03378    -19.438486    -19.438486
   2.05051    -19.412461    -19.412461
   2.06724    -19.385673    -19.385673
   2.08397    -19.358592    -19.358592
   2.10070    -19.331803    -19.331803
   2.11743    -19.307954    -19.307954
   2.11743    -19.307954    -19.307954
   2.14700    -19.306690    -19.306690
   2.17657    -19.303576    -19.303576
   2.20615    -19.298376    -19.298376
   2.23572    -19.290983    -19.290983
   2.26529    -19.282218    -19.282218
   2.29487    -19.271205    -19.271205
   2.32444    -19.258340    -19.258340
   2.35401    -19.243749    -19.243749
   2.38359    -19.226889    -19.226889
   2.41316    -19.209051    -19.209051
   2.44274    -19.189645    -19.189645
   2.47231    -19.168904    -19.168904
   2.50188    -19.146665    -19.146665
   2.53146    -19.123421    -19.123421
   2.56103    -19.099322    -19.099322
   2.59060    -19.074462    -19.074462
   2.62018    -19.048643    -19.048643
   2.64975    -19.021844    -19.021844
   2.67932    -18.994442    -18.994442
   2.70890    -18.967246    -18.967246
   2.73847    -18.939742    -18.939742
   2.76805    -18.912061    -18.912061
   2.79762    -18.883665    -18.883665
   2.82719    -18.855335    -18.855335
   2.85677    -18.827535    -18.827535
   2.88634    -18.799709    -18.799709
   2.91591    -18.772656    -18.772656
   2.94549    -18.746142    -18.746142
   2.97506    -18.720278    -18.720278
   3.00463    -18.695168    -18.695168
   3.03421    -18.670911    -18.670911
   3.06378    -18.647601    -18.647601
   3.09336    -18.625677    -18.625677
   3.12293    -18.604520    -18.604520
   3.15250    -18.584414    -18.584414
   3.18208    -18.565703    -18.565703
   3.21165    -18.548696    -18.548696
   3.24122    -18.533392    -18.533392
   3.27080    -18.525270    -18.525270
   3.27080    -18.525270    -18.525270
   3.29345    -18.523830    -18.523830
   3.31610    -18.523544    -18.523544
   3.33875    -18.524222    -18.524222
   3.36140    -18.525110    -18.525110
   3.38406    -18.525834    -18.525834
   3.40671    -18.526805    -18.526805
   3.42936    -18.527258    -18.527258
   3.45201    -18.527259    -18.527259
   3.47466    -18.527682    -18.527682
   3.49731    -18.527674    -18.527674
   3.51997    -18.527476    -18.527476
   3.54262    -18.527164    -18.527164
   3.56527    -18.526865    -18.526865
   3.58792    -18.526489    -18.526489
   3.61057    -18.525645    -18.525645
   3.63322    -18.525088    -18.525088
   3.65588    -18.524688    -18.524688
   3.67853    -18.524197    -18.524197
   3.70118    -18.523993    -18.523993
   3.72383    -18.523993    -18.523993
   3.74648    -18.524197    -18.524197
   3.76913    -18.524688    -18.524688
   3.79179    -18.525088    -18.525088
   3.81444    -18.525645    -18.525645
   3.83709    -18.526489    -18.526489
   3.85974    -18.526865    -18.526865
   3.88239    -18.527164    -18.527164
   3.90504    -18.527476    -18.527476
   3.92770    -18.527674    -18.527674
   3.95035    -18.527682    -18.527682
   3.97300    -18.527259    -18.527259
   3.99565    -18.527257    -18.527258
   4.01830    -18.526805    -18.526805
   4.04095    -18.525834    -18.525834
   4.06361    -18.525110    -18.525110
   4.08626    -18.524222    -18.524222
   4.10891    -18.523544    -18.523544
   4.13156    -18.523830    -18.523830
   4.15421    -18.525270    -18.525270
   4.15421    -18.525270    -18.525270
   4.16604    -18.526558    -18.526558
   4.17787    -18.528053    -18.528053
   4.18970    -18.529565    -18.529565
   4.20153    -18.531361    -18.531361
   4.21336    -18.532771    -18.532771
   4.22519    -18.534278    -18.534278
   4.23702    -18.535532    -18.535532
   4.24885    -18.536700    -18.536700
   4.26068    -18.537776    -18.537776
   4.27251    -18.538410    -18.538410
   4.28434    -18.539302    -18.539302
   4.29617    -18.540098    -18.540098
   4.30800    -18.540796    -18.540796
   4.31983    -18.541396    -18.541396
   4.33166    -18.541723    -18.541723
   4.34348    -18.542127    -18.542127
   4.35531    -18.542431    -18.542431
   4.36714    -18.542633    -18.542633
   4.37897    -18.542735    -18.542735
   4.39080    -18.542735    -18.542735
   4.40263    -18.542633    -18.542633
   4.41446    -18.542431    -18.542431
   4.42629    -18.542127    -18.542127
   4.43812    -18.541723    -18.541723
   4.44995    -18.541396    -18.541396
   4.46178    -18.540796    -18.540796
   4.47361    -18.540098    -18.540098
   4.48544    -18.539302    -18.539302
   4.49727    -18.538410    -18.538410
   4.50910    -18.537776    -18.537776
   4.52093    -18.536700    -18.536700
   4.53276    -18.535532    -18.535532
   4.54459    -18.534278    -18.534278
   4.55641    -18.532771    -18.532771
   4.56824    -18.531361    -18.531361
   4.58007    -18.529565    -18.529565
   4.59190    -18.528053    -18.528053
   4.60373    -18.526558    -18.526558
   4.61556    -18.525270    -18.525270
 
# Band-Index    2
   4.61556    -18.516532    -18.516532
   4.60373    -18.513353    -18.513353
   4.59190    -18.510055    -18.510055
   4.58007    -18.506832    -18.506832
   4.56824    -18.504428    -18.504428
   4.55641    -18.501507    -18.501507
   4.54459    -18.498757    -18.498757
   4.53276    -18.496183    -18.496183
   4.52093    -18.494122    -18.494122
   4.50910    -18.491923    -18.491923
   4.49727    -18.489914    -18.489914
   4.48544    -18.488097    -18.488097
   4.47361    -18.486475    -18.486475
   4.46178    -18.485049    -18.485049
   4.44995    -18.483820    -18.483820
   4.43812    -18.483197    -18.483197
   4.42629    -18.482788    -18.482788
   4.41446    -18.482580    -18.482580
   4.40263    -18.482594    -18.482594
   4.39080    -18.482392    -18.482392
   4.37897    -18.482392    -18.482392
   4.36714    -18.482594    -18.482594
   4.35531    -18.482580    -18.482580
   4.34348    -18.482788    -18.482788
   4.33166    -18.483197    -18.483197
   4.31983    -18.483820    -18.483820
   4.30800    -18.485049    -18.485049
   4.29617    -18.486475    -18.486475
   4.28434    -18.488097    -18.488097
   4.27251    -18.489914    -18.489914
   4.26068    -18.491923    -18.491923
   4.24885    -18.494122    -18.494122
   4.23702    -18.496183    -18.496183
   4.22519    -18.498757    -18.498757
   4.21336    -18.501507    -18.501507
   4.20153    -18.504428    -18.504428
   4.18970    -18.506832    -18.506832
   4.17787    -18.510055    -18.510055
   4.16604    -18.513353    -18.513353
   4.15421    -18.516532    -18.516532
   4.15421    -18.516532    -18.516532
   4.13156    -18.517097    -18.517097
   4.10891    -18.516162    -18.516162
   4.08626    -18.514717    -18.514717
   4.06361    -18.513535    -18.513535
   4.04095    -18.511864    -18.511864
   4.01830    -18.510836    -18.510836
   3.99565    -18.509707    -18.509707
   3.97300    -18.509120    -18.509120
   3.95035    -18.508660    -18.508660
   3.92770    -18.508734    -18.508734
   3.90504    -18.508549    -18.508549
   3.88239    -18.508751    -18.508751
   3.85974    -18.509179    -18.509179
   3.83709    -18.509706    -18.509706
   3.81444    -18.510225    -18.510225
   3.79179    -18.510741    -18.510741
   3.76913    -18.511532    -18.511532
   3.74648    -18.511873    -18.511873
   3.72383    -18.512082    -18.512082
   3.70118    -18.512082    -18.512082
   3.67853    -18.511873    -18.511873
   3.65588    -18.511532    -18.511532
   3.63322    -18.510741    -18.510741
   3.61057    -18.510225    -18.510225
   3.58792    -18.509706    -18.509706
   3.56527    -18.509179    -18.509179
   3.54262    -18.508751    -18.508751
   3.51997    -18.508549    -18.508549
   3.49731    -18.508734    -18.508734
   3.47466    -18.508660    -18.508660
   3.45201    -18.509120    -18.509120
   3.42936    -18.509707    -18.509707
   3.40671    -18.510836    -18.510836
   3.38406    -18.511864    -18.511864
   3.36140    -18.513535    -18.513535
   3.33875    -18.514717    -18.514717
   3.31610    -18.516162    -18.516162
   3.29345    -18.517097    -18.517097
   3.27080    -18.516532    -18.516532
   3.27080    -18.516532    -18.516532
   3.24122    -18.523291    -18.523291
   3.21165    -18.527654    -18.527654
   3.18208    -18.534206    -18.534206
   3.15250    -18.544270    -18.544270
   3.12293    -18.557138    -18.557138
   3.09336    -18.573362    -18.573362
   3.06378    -18.591828    -18.591828
   3.03421    -18.612751    -18.612751
   3.00463    -18.635710    -18.635710
   2.97506    -18.660753    -18.660753
   2.94549    -18.687126    -18.687126
   2.91591    -18.714978    -18.714978
   2.88634    -18.744052    -18.744052
   2.85677    -18.774831    -18.774831
   2.82719    -18.805781    -18.805781
   2.79762    -18.837711    -18.837711
   2.76805    -18.869239    -18.869239
   2.73847    -18.901138    -18.901138
   2.70890    -18.932532    -18.932532
   2.67932    -18.963864    -18.963864
   2.64975    -18.994616    -18.994616
   2.62018    -19.024323    -19.024323
   2.59060    -19.053394    -19.053394
   2.56103    -19.081677    -19.081677
   2.53146    -19.108408    -19.108408
   2.50188    -19.133755    -19.133755
   2.47231    -19.157589    -19.157589
   2.44274    -19.179928    -19.179928
   2.41316    -19.200372    -19.200372
   2.38359    -19.218848    -19.218848
   2.35401    -19.236132    -19.236132
   2.32444    -19.250871    -19.250871
   2.29487    -19.263660    -19.263660
   2.26529    -19.274485    -19.274485
   2.23572    -19.283066    -19.283066
   2.20615    -19.290314    -19.290314
   2.17657    -19.295421    -19.295421
   2.14700    -19.298481    -19.298481
   2.11743    -19.299751    -19.299751
   2.11743    -19.299751    -19.299751
   2.10070    -19.275705    -19.275705
   2.08397    -19.247849    -19.247849
   2.06724    -19.219780    -19.219780
   2.05051    -19.191614    -19.191614
   2.03378    -19.164299    -19.164299
   2.01705    -19.136127    -19.136127
   2.00032    -19.108020    -19.108020
   1.98359    -19.079002    -19.079002
   1.96686    -19.052202    -19.052202
   1.95013    -19.024616    -19.024616
   1.93340    -18.997297    -18.997297
   1.91667    -18.970294    -18.970294
   1.89994    -18.943659    -18.943659
   1.88321    -18.917444    -18.917444
   1.86648    -18.891702    -18.891702
   1.84976    -18.866485    -18.866485
   1.83303    -18.841847    -18.841847
   1.81630    -18.816869    -18.816869
   1.79957    -18.794510    -18.794510
   1.78284    -18.771956    -18.771956
   1.76611    -18.750193    -18.750193
   1.74938    -18.729269    -18.729269
   1.73265    -18.709232    -18.709232
   1.71592    -18.690131    -18.690131
   1.69919    -18.672014    -18.672014
   1.68246    -18.654924    -18.654924
   1.66573    -18.638906    -18.638906
   1.64900    -18.623485    -18.623485
   1.63227    -18.610924    -18.610924
   1.61554    -18.598395    -18.598395
   1.59881    -18.587091    -18.587091
   1.58209    -18.577039    -18.577039
   1.56536    -18.568268    -18.568268
   1.54863    -18.560803    -18.560803
   1.53190    -18.554664    -18.554664
   1.51517    -18.549386    -18.549386
   1.49844    -18.545959    -18.545959
   1.48171    -18.543898    -18.543898
   1.46498    -18.543209    -18.543209
   1.46498    -18.543209    -18.543209
   1.42742    -18.542693    -18.542693
   1.38985    -18.541506    -18.541506
   1.35229    -18.538971    -18.538971
   1.31473    -18.535456    -18.535456
   1.27716    -18.530999    -18.530999
   1.23960    -18.525006    -18.525006
   1.20203    -18.518539    -18.518539
   1.16447    -18.511956    -18.511956
   1.12691    -18.504363    -18.504363
   1.08934    -18.496529    -18.496529
   1.05178    -18.487416    -18.487416
   1.01422    -18.478332    -18.478332
   0.97665    -18.469339    -18.469339
   0.93909    -18.460156    -18.460156
   0.90153    -18.450572    -18.450572
   0.86396    -18.440017    -18.440017
   0.82640    -18.431062    -18.431062
   0.78884    -18.422024    -18.422024
   0.75127    -18.412232    -18.412232
   0.71371    -18.404853    -18.404853
   0.67614    -18.397374    -18.397374
   0.63858    -18.390603    -18.390603
   0.60102    -18.384549    -18.384549
   0.56345    -18.379471    -18.379471
   0.52589    -18.375689    -18.375689
   0.48833    -18.372261    -18.372261
   0.45076    -18.370243    -18.370243
   0.41320    -18.369294    -18.369294
   0.37564    -18.369428    -18.369428
   0.33807    -18.370643    -18.370643
   0.30051    -18.372923    -18.372923
   0.26295    -18.376617    -18.376616
   0.22538    -18.380641    -18.380641
   0.18782    -18.385631    -18.385631
   0.15025    -18.392197    -18.392197
   0.11269    -18.399146    -18.399146
   0.07513    -18.406778    -18.406778
   0.03756    -18.411752    -18.411752
   0.00000    -18.406009    -18.406009
 
# Band-Index    3
   0.00000     -6.694786     -6.694786
   0.03756     -6.585386     -6.585386
   0.07513     -6.509264     -6.509264
   0.11269     -6.587320     -6.587320
   0.15025     -6.657466     -6.657466
   0.18782     -6.714165     -6.714165
   0.22538     -6.757396     -6.757396
   0.26295     -6.785520     -6.785520
   0.30051     -6.798898     -6.798898
   0.33807     -6.797415     -6.797415
   0.37564     -6.778812     -6.778812
   0.41320     -6.747773     -6.747773
   0.45076     -6.702803     -6.702803
   0.48833     -6.642883     -6.642883
   0.52589     -6.569080     -6.569080
   0.56345     -6.480418     -6.480418
   0.60102     -6.381496     -6.381496
   0.63858     -6.283418     -6.283418
   0.67614     -6.336388     -6.336388
   0.71371     -6.442506     -6.442506
   0.75127     -6.550636     -6.550636
   0.78884     -6.660966     -6.660966
   0.82640     -6.767705     -6.767705
   0.86396     -6.871743     -6.871743
   0.90153     -6.974086     -6.974086
   0.93909     -7.071451     -7.071451
   0.97665     -7.164388     -7.164388
   1.01422     -7.251851     -7.251850
   1.05178     -7.334456     -7.334456
   1.08934     -7.412023     -7.412023
   1.12691     -7.482395     -7.482395
   1.16447     -7.546388     -7.546388
   1.20203     -7.603084     -7.603085
   1.23960     -7.653276     -7.653276
   1.27716     -7.696147     -7.696147
   1.31473     -7.731337     -7.731337
   1.35229     -7.758858     -7.758858
   1.38985     -7.778595     -7.778595
   1.42742     -7.790386     -7.790386
   1.46498     -7.794351     -7.794351
   1.46498     -7.794351     -7.794351
   1.48171     -7.792767     -7.792767
   1.49844     -7.788010     -7.788010
   1.51517     -7.780087     -7.780087
   1.53190     -7.769618     -7.769618
   1.54863     -7.755418     -7.755418
   1.56536     -7.738097     -7.738097
   1.58209     -7.717681     -7.717681
   1.59881     -7.694195     -7.694195
   1.61554     -7.667673     -7.667673
   1.63227     -7.638152     -7.638152
   1.64900     -7.603045     -7.603045
   1.66573     -7.567774     -7.567774
   1.68246     -7.529541     -7.529541
   1.69919     -7.488477     -7.488477
   1.71592     -7.444632     -7.444632
   1.73265     -7.398061     -7.398061
   1.74938     -7.348818     -7.348818
   1.76611     -7.296962     -7.296962
   1.78284     -7.242554     -7.242554
   1.79957     -7.185658     -7.185658
   1.81630     -7.125503     -7.125503
   1.83303     -7.064582     -7.064582
   1.84976     -7.000623     -7.000623
   1.86648     -6.934434     -6.934434
   1.88321     -6.866084     -6.866084
   1.89994     -6.795643     -6.795643
   1.91667     -6.723180     -6.723180
   1.93340     -6.648767     -6.648767
   1.95013     -6.572481     -6.572481
   1.96686     -6.494399     -6.494399
   1.98359     -6.412079     -6.412079
   2.00032     -6.330955     -6.330955
   2.01705     -6.247984     -6.247984
   2.03378     -6.163552     -6.163552
   2.05051     -6.076142     -6.076142
   2.06724     -5.989213     -5.989213
   2.08397     -5.901499     -5.901499
   2.10070     -5.814509     -5.814509
   2.11743     -5.751266     -5.751266
   2.11743     -5.751266     -5.751266
   2.14700     -5.752269     -5.752269
   2.17657     -5.755517     -5.755517
   2.20615     -5.761306     -5.761306
   2.23572     -5.769124     -5.769124
   2.26529     -5.780278     -5.780278
   2.29487     -5.795761     -5.795761
   2.32444     -5.828435     -5.828435
   2.35401     -5.867529     -5.867529
   2.38359     -5.908673     -5.908673
   2.41316     -5.953233     -5.953233
   2.44274     -5.999207     -5.999207
   2.47231     -6.046758     -6.046758
   2.50188     -6.095219     -6.095219
   2.53146     -6.145284     -6.145284
   2.56103     -6.196607     -6.196607
   2.59060     -6.249171     -6.249171
   2.62018     -6.303977     -6.303977
   2.64975     -6.361560     -6.361560
   2.67932     -6.422625     -6.422625
   2.70890     -6.487763     -6.487763
   2.73847     -6.557411     -6.557411
   2.76805     -6.630329     -6.630329
   2.79762     -6.706781     -6.706781
   2.82719     -6.784626     -6.784626
   2.85677     -6.864045     -6.864045
   2.88634     -6.943950     -6.943950
   2.91591     -7.023320     -7.023320
   2.94549     -7.101891     -7.101891
