#K-Path          Energy     s     py     pz     px    dxy    dyz    dz2    dxz  x2-y2    tot
# NKPTS & NBANDS: 200  20
# Band-Index    1
   0.00000    -18.424185  0.788  0.000  0.000  0.000  0.000  0.000  0.000  0.000  0.000  0.788
   0.03756    -18.414291  0.788  0.000  0.000  0.000  0.000  0.000  0.000  0.000  0.000  0.788
   0.07513    -18.421431  0.788  0.000  0.000  0.000  0.000  0.000  0.000  0.000  0.000  0.788
   0.11269    -18.436005  0.786  0.000  0.000  0.000  0.000  0.000  0.000  0.000  0.000  0.786
   0.15025    -18.454221  0.784  0.000  0.000  0.000  0.000  0.000  0.000  0.000  0.000  0.784
   0.18782    -18.475650  0.782  0.000  0.000  0.000  0.000  0.000  0.000  0.000  0.000  0.782
   0.22538    -18.501466  0.780  0.000  0.000  0.000  0.000  0.000  0.000  0.000  0.000  0.780
   0.26295    -18.531072  0.778  0.000  0.000  0.000  0.000  0.000  0.000  0.000  0.000  0.778
   0.30051    -18.564771  0.774  0.000  0.000  0.000  0.000  0.000  0.000  0.000  0.000  0.774
   0.33807    -18.602496  0.772  0.000  0.000  0.000  0.000  0.000  0.000  0.000  0.000  0.772
   0.37564    -18.642729  0.770  0.000  0.000  0.000  0.000  0.000  0.000  0.000  0.000  0.770
   0.41320    -18.688086  0.766  0.000  0.000  0.000  0.000  0.000  0.000  0.000  0.000  0.766
   0.45076    -18.737522  0.760  0.000  0.000  0.000  0.000  0.000  0.000  0.000  0.000  0.762
   0.48833    -18.789463  0.756  0.000  0.000  0.000  0.000  0.000  0.000  0.000  0.000  0.758
   0.52589    -18.844194  0.752  0.000  0.000  0.000  0.000  0.000  0.000  0.000  0.000  0.754
   0.56345    -18.900073  0.748  0.000  0.000  0.000  0.000  0.000  0.000  0.000  0.000  0.750
   0.60102    -18.959219  0.744  0.000  0.000  0.000  0.000  0.000  0.000  0.000  0.000  0.746
   0.63858    -19.019906  0.740  0.000  0.000  0.000  0.000  0.000  0.000  0.000  0.000  0.740
   0.67614    -19.082000  0.734  0.000  0.000  0.000  0.000  0.000  0.000  0.000  0.000  0.736
   0.71371    -19.144431  0.730  0.000  0.000  0.000  0.000  0.000  0.000  0.000  0.000  0.732
   0.75127    -19.207039  0.726  0.000  0.000  0.000  0.000  0.000  0.000  0.000  0.000  0.726
   0.78884    -19.269369  0.722  0.000  0.000  0.000  0.000  0.000  0.000  0.000  0.000  0.722
   0.82640    -19.330407  0.718  0.000  0.000  0.000  0.000  0.000  0.000  0.000  0.000  0.718
   0.86396    -19.390592  0.714  0.000  0.000  0.000  0.000  0.000  0.000  0.000  0.000  0.714
   0.90153    -19.449531  0.710  0.000  0.000  0.000  0.000  0.000  0.000  0.000  0.000  0.710
   0.93909    -19.507805  0.704  0.000  0.000  0.000  0.000  0.000  0.000  0.000  0.000  0.706
   0.97665    -19.562210  0.702  0.000  0.000  0.000  0.000  0.000  0.000  0.000  0.000  0.702
   1.01422    -19.614244  0.698  0.000  0.000  0.000  0.000  0.000  0.000  0.000  0.000  0.700
   1.05178    -19.663952  0.694  0.000  0.000  0.000  0.000  0.000  0.000  0.000  0.000  0.696
   1.08934    -19.709730  0.692  0.000  0.000  0.000  0.000  0.000  0.000  0.000  0.000  0.692
   1.12691    -19.751946  0.690  0.000  0.000  0.000  0.000  0.000  0.000  0.000  0.000  0.690
   1.16447    -19.790365  0.688  0.000  0.000  0.000  0.000  0.000  0.000  0.000  0.000  0.688
   1.20203    -19.825394  0.684  0.000  0.000  0.000  0.000  0.000  0.000  0.000  0.000  0.686
   1.23960    -19.855315  0.684  0.000  0.000  0.000  0.000  0.000  0.000  0.000  0.000  0.684
   1.27716    -19.881173  0.682  0.000  0.000  0.000  0.000  0.000  0.000  0.000  0.000  0.682
   1.31473    -19.902520  0.680  0.000  0.000  0.000  0.000  0.000  0.000  0.000  0.000  0.680
   1.35229    -19.919244  0.680  0.000  0.000  0.000  0.000  0.000  0.000  0.000  0.000  0.680
   1.38985    -19.931250  0.680  0.000  0.000  0.000  0.000  0.000  0.000  0.000  0.000  0.680
   1.42742    -19.938474  0.678  0.000  0.000  0.000  0.000  0.000  0.000  0.000  0.000  0.678
   1.46498    -19.940882  0.678  0.000  0.000  0.000  0.000  0.000  0.000  0.000  0.000  0.678
   1.46498    -19.940882  0.678  0.000  0.000  0.000  0.000  0.000  0.000  0.000  0.000  0.678
   1.48171    -19.940406  0.678  0.000  0.000  0.000  0.000  0.000  0.000  0.000  0.000  0.678
   1.49844    -19.938973  0.678  0.000  0.000  0.000  0.000  0.000  0.000  0.000  0.000  0.678
   1.51517    -19.936583  0.678  0.000  0.000  0.000  0.000  0.000  0.000  0.000  0.000  0.678
   1.53190    -19.933240  0.680  0.000  0.000  0.000  0.000  0.000  0.000  0.000  0.000  0.680
   1.54863    -19.928945  0.680  0.000  0.000  0.000  0.000  0.000  0.000  0.000  0.000  0.680
   1.56536    -19.923704  0.680  0.000  0.000  0.000  0.000  0.000  0.000  0.000  0.000  0.680
   1.58209    -19.917522  0.680  0.000  0.000  0.000  0.000  0.000  0.000  0.000  0.000  0.680
   1.59881    -19.910403  0.680  0.000  0.000  0.000  0.000  0.000  0.000  0.000  0.000  0.680
   1.61554    -19.902356  0.680  0.000  0.000  0.000  0.000  0.000  0.000  0.000  0.000  0.680
   1.63227    -19.893388  0.682  0.000  0.000  0.000  0.000  0.000  0.000  0.000  0.000  0.682
   1.64900    -19.883511  0.682  0.000  0.000  0.000  0.000  0.000  0.000  0.000  0.000  0.682
   1.66573    -19.872885  0.682  0.000  0.000  0.000  0.000  0.000  0.000  0.000  0.000  0.682
   1.68246    -19.861218  0.682  0.000  0.000  0.000  0.000  0.000  0.000  0.000  0.000  0.684
   1.69919    -19.848671  0.684  0.000  0.000  0.000  0.000  0.000  0.000  0.000  0.000  0.684
   1.71592    -19.835257  0.684  0.000  0.000  0.000  0.000  0.000  0.000  0.000  0.000  0.684
   1.73265    -19.820990  0.686  0.000  0.000  0.000  0.000  0.000  0.000  0.000  0.000  0.686
   1.74938    -19.805884  0.686  0.000  0.000  0.000  0.000  0.000  0.000  0.000  0.000  0.686
   1.76611    -19.789506  0.688  0.000  0.000  0.000  0.000  0.000  0.000  0.000  0.000  0.688
   1.78284    -19.772779  0.688  0.000  0.000  0.000  0.000  0.000  0.000  0.000  0.000  0.688
   1.79957    -19.755265  0.690  0.000  0.000  0.000  0.000  0.000  0.000  0.000  0.000  0.690
   1.81630    -19.736982  0.690  0.000  0.000  0.000  0.000  0.000  0.000  0.000  0.000  0.692
   1.83303    -19.717950  0.692  0.000  0.000  0.000  0.000  0.000  0.000  0.000  0.000  0.692
   1.84976    -19.697702  0.694  0.000  0.000  0.000  0.000  0.000  0.000  0.000  0.000  0.694
   1.86648    -19.677241  0.694  0.000  0.000  0.000  0.000  0.000  0.000  0.000  0.000  0.696
   1.88321    -19.656095  0.696  0.000  0.000  0.000  0.000  0.000  0.000  0.000  0.000  0.696
   1.89994    -19.634288  0.698  0.000  0.000  0.000  0.000  0.000  0.000  0.000  0.000  0.698
   1.91667    -19.611845  0.698  0.000  0.000  0.000  0.000  0.000  0.000  0.000  0.000  0.700
   1.93340    -19.587862  0.700  0.000  0.000  0.000  0.000  0.000  0.000  0.000  0.000  0.702
   1.95013    -19.564239  0.702  0.000  0.000  0.000  0.000  0.000  0.000  0.000  0.000  0.704
   1.96686    -19.540067  0.704  0.000  0.000  0.000  0.000  0.000  0.000  0.000  0.000  0.704
   1.98359    -19.515375  0.706  0.000  0.000  0.000  0.000  0.000  0.000  0.000  0.000  0.706
   2.00032    -19.490193  0.708  0.000  0.000  0.000  0.000  0.000  0.000  0.000  0.000  0.708
   2.01705    -19.464552  0.708  0.000  0.000  0.000  0.000  0.000  0.000  0.000  0.000  0.710
   2.03378    -19.438487  0.710  0.000  0.000  0.000  0.000  0.000  0.000  0.000  0.000  0.712
   2.05051    -19.412462  0.712  0.000  0.000  0.000  0.000  0.000  0.000  0.000  0.000  0.712
   2.06724    -19.385673  0.714  0.000  0.000  0.000  0.000  0.000  0.000  0.000  0.000  0.714
   2.08397    -19.358592  0.716  0.000  0.000  0.000  0.000  0.000  0.000  0.000  0.000  0.716
   2.10070    -19.331804  0.716  0.000  0.000  0.000  0.000  0.000  0.000  0.000  0.000  0.718
   2.11743    -19.307954  0.718  0.000  0.000  0.000  0.000  0.000  0.000  0.000  0.000  0.720
   2.11743    -19.307954  0.718  0.000  0.000  0.000  0.000  0.000  0.000  0.000  0.000  0.720
   2.14700    -19.306691  0.718  0.000  0.000  0.000  0.000  0.000  0.000  0.000  0.000  0.720
   2.17657    -19.303576  0.718  0.000  0.000  0.000  0.000  0.000  0.000  0.000  0.000  0.720
   2.20615    -19.298377  0.718  0.000  0.000  0.000  0.000  0.000  0.000  0.000  0.000  0.720
   2.23572    -19.290983  0.720  0.000  0.000  0.000  0.000  0.000  0.000  0.000  0.000  0.722
   2.26529    -19.282218  0.720  0.000  0.000  0.000  0.000  0.000  0.000  0.000  0.000  0.722
   2.29487    -19.271206  0.720  0.000  0.000  0.000  0.000  0.000  0.000  0.000  0.000  0.722
   2.32444    -19.258340  0.722  0.000  0.000  0.000  0.000  0.000  0.000  0.000  0.000  0.722
   2.35401    -19.243749  0.722  0.000  0.000  0.000  0.000  0.000  0.000  0.000  0.000  0.724
   2.38359    -19.226889  0.724  0.000  0.000  0.000  0.000  0.000  0.000  0.000  0.000  0.726
   2.41316    -19.209052  0.724  0.000  0.000  0.000  0.000  0.000  0.000  0.000  0.000  0.726
   2.44274    -19.189645  0.726  0.000  0.000  0.000  0.000  0.000  0.000  0.000  0.000  0.728
   2.47231    -19.168904  0.728  0.000  0.000  0.000  0.000  0.000  0.000  0.000  0.000  0.730
   2.50188    -19.146665  0.730  0.000  0.000  0.002  0.000  0.000  0.000  0.000  0.000  0.730
   2.53146    -19.123421  0.732  0.000  0.000  0.002  0.000  0.000  0.000  0.000  0.000  0.732
   2.56103    -19.099323  0.734  0.000  0.000  0.002  0.000  0.000  0.000  0.000  0.000  0.734
   2.59060    -19.074462  0.734  0.000  0.000  0.002  0.000  0.000  0.000  0.000  0.000  0.736
   2.62018    -19.048644  0.736  0.000  0.000  0.002  0.000  0.000  0.000  0.000  0.000  0.738
   2.64975    -19.021844  0.738  0.000  0.000  0.002  0.000  0.000  0.000  0.000  0.000  0.740
   2.67932    -18.994442  0.742  0.000  0.000  0.002  0.000  0.000  0.000  0.000  0.000  0.742
   2.70890    -18.967246  0.744  0.000  0.000  0.002  0.000  0.000  0.000  0.000  0.000  0.744
   2.73847    -18.939742  0.744  0.000  0.000  0.002  0.000  0.000  0.000  0.000  0.000  0.746
   2.76805    -18.912062  0.746  0.000  0.000  0.000  0.000  0.000  0.000  0.000  0.000  0.748
   2.79762    -18.883665  0.750  0.000  0.000  0.000  0.000  0.000  0.000  0.000  0.000  0.750
   2.82719    -18.855335  0.752  0.000  0.000  0.000  0.000  0.000  0.000  0.000  0.000  0.752
   2.85677    -18.827536  0.754  0.000  0.000  0.000  0.000  0.000  0.000  0.000  0.000  0.754
   2.88634    -18.799710  0.756  0.000  0.000  0.000  0.000  0.000  0.000  0.000  0.000  0.758
   2.91591    -18.772656  0.758  0.000  0.000  0.000  0.000  0.000  0.000  0.000  0.000  0.760
   2.94549    -18.746143  0.760  0.000  0.000  0.000  0.000  0.000  0.000  0.000  0.000  0.762
   2.97506    -18.720279  0.762  0.000  0.000  0.000  0.000  0.000  0.000  0.000  0.000  0.764
   3.00463    -18.695169  0.764  0.000  0.000  0.000  0.000  0.000  0.000  0.000  0.000  0.766
   3.03421    -18.670912  0.766  0.000  0.000  0.000  0.000  0.000  0.000  0.000  0.000  0.766
   3.06378    -18.647602  0.768  0.000  0.000  0.000  0.000  0.000  0.000  0.000  0.000  0.768
   3.09336    -18.625677  0.770  0.000  0.000  0.000  0.000  0.000  0.000  0.000  0.000  0.770
   3.12293    -18.604520  0.772  0.000  0.000  0.000  0.000  0.000  0.000  0.000  0.000  0.772
   3.15250    -18.584414  0.774  0.000  0.000  0.000  0.000  0.000  0.000  0.000  0.000  0.774
   3.18208    -18.565704  0.774  0.000  0.000  0.000  0.000  0.000  0.000  0.000  0.000  0.776
   3.21165    -18.548697  0.776  0.000  0.000  0.000  0.000  0.000  0.000  0.000  0.000  0.776
   3.24122    -18.533392  0.778  0.000  0.000  0.000  0.000  0.000  0.000  0.000  0.000  0.778
   3.27080    -18.525271  0.780  0.000  0.000  0.000  0.000  0.000  0.000  0.000  0.000  0.780
   3.27080    -18.525271  0.780  0.000  0.000  0.000  0.000  0.000  0.000  0.000  0.000  0.780
   3.29345    -18.523830  0.780  0.000  0.000  0.000  0.000  0.000  0.000  0.000  0.000  0.780
   3.31610    -18.523544  0.778  0.000  0.000  0.000  0.000  0.000  0.000  0.000  0.000  0.778
   3.33875    -18.524222  0.778  0.000  0.000  0.000  0.000  0.000  0.000  0.000  0.000  0.778
   3.36140    -18.525111  0.778  0.000  0.000  0.000  0.000  0.000  0.000  0.000  0.000  0.778
   3.38406    -18.525834  0.778  0.000  0.000  0.000  0.000  0.000  0.000  0.000  0.000  0.778
   3.40671    -18.526806  0.778  0.000  0.000  0.000  0.000  0.000  0.000  0.000  0.000  0.778
   3.42936    -18.527258  0.778  0.000  0.000  0.000  0.000  0.000  0.000  0.000  0.000  0.778
   3.45201    -18.527259  0.778  0.000  0.000  0.000  0.000  0.000  0.000  0.000  0.000  0.778
   3.47466    -18.527683  0.778  0.000  0.000  0.000  0.000  0.000  0.000  0.000  0.000  0.778
   3.49731    -18.527674  0.778  0.000  0.000  0.000  0.000  0.000  0.000  0.000  0.000  0.778
   3.51997    -18.527477  0.778  0.000  0.000  0.000  0.000  0.000  0.000  0.000  0.000  0.778
   3.54262    -18.527164  0.778  0.000  0.000  0.000  0.000  0.000  0.000  0.000  0.000  0.778
   3.56527    -18.526866  0.778  0.000  0.000  0.000  0.000  0.000  0.000  0.000  0.000  0.778
   3.58792    -18.526489  0.778  0.000  0.000  0.000  0.000  0.000  0.000  0.000  0.000  0.778
   3.61057    -18.525646  0.778  0.000  0.000  0.000  0.000  0.000  0.000  0.000  0.000  0.778
   3.63322    -18.525089  0.778  0.000  0.000  0.000  0.000  0.000  0.000  0.000  0.000  0.778
   3.65588    -18.524688  0.778  0.000  0.000  0.000  0.000  0.000  0.000  0.000  0.000  0.778
   3.67853    -18.524198  0.778  0.000  0.000  0.000  0.000  0.000  0.000  0.000  0.000  0.778
   3.70118    -18.523993  0.778  0.000  0.000  0.000  0.000  0.000  0.000  0.000  0.000  0.778
   3.72383    -18.523993  0.778  0.000  0.000  0.000  0.000  0.000  0.000  0.000  0.000  0.778
   3.74648    -18.524198  0.778  0.000  0.000  0.000  0.000  0.000  0.000  0.000  0.000  0.778
   3.76913    -18.524688  0.778  0.000  0.000  0.000  0.000  0.000  0.000  0.000  0.000  0.778
   3.79179    -18.525089  0.778  0.000  0.000  0.000  0.000  0.000  0.000  0.000  0.000  0.778
   3.81444    -18.525646  0.778  0.000  0.000  0.000  0.000  0.000  0.000  0.000  0.000  0.778
   3.83709    -18.526489  0.778  0.000  0.000  0.000  0.000  0.000  0.000  0.000  0.000  0.778
   3.85974    -18.526866  0.778  0.000  0.000  0.000  0.000  0.000  0.000  0.000  0.000  0.778
   3.88239    -18.527164  0.778  0.000  0.000  0.000  0.000  0.000  0.000  0.000  0.000  0.778
   3.90504    -18.527477  0.778  0.000  0.000  0.000  0.000  0.000  0.000  0.000  0.000  0.778
   3.92770    -18.527674  0.778  0.000  0.000  0.000  0.000  0.000  0.000  0.000  0.000  0.778
   3.95035    -18.527683  0.778  0.000  0.000  0.000  0.000  0.000  0.000  0.000  0.000  0.778
   3.97300    -18.527259  0.778  0.000  0.000  0.000  0.000  0.000  0.000  0.000  0.000  0.778
   3.99565    -18.527258  0.778  0.000  0.000  0.000  0.000  0.000  0.000  0.000  0.000  0.778
   4.01830    -18.526806  0.778  0.000  0.000  0.000  0.000  0.000  0.000  0.000  0.000  0.778
   4.04095    -18.525834  0.778  0.000  0.000  0.000  0.000  0.000  0.000  0.000  0.000  0.778
   4.06361    -18.525111  0.778  0.000  0.000  0.000  0.000  0.000  0.000  0.000  0.000  0.778
   4.08626    -18.524222  0.778  0.000  0.000  0.000  0.000  0.000  0.000  0.000  0.000  0.778
   4.10891    -18.523544  0.778  0.000  0.000  0.000  0.000  0.000  0.000  0.000  0.000  0.778
   4.13156    -18.523830  0.780  0.000  0.000  0.000  0.000  0.000  0.000  0.000  0.000  0.780
   4.15421    -18.525271  0.780  0.000  0.000  0.000  0.000  0.000  0.000  0.000  0.000  0.780
   4.15421    -18.525271  0.780  0.000  0.000  0.000  0.000  0.000  0.000  0.000  0.000  0.780
   4.16604    -18.526558  0.780  0.000  0.000  0.000  0.000  0.000  0.000  0.000  0.000  0.780
   4.17787    -18.528054  0.780  0.000  0.000  0.000  0.000  0.000  0.000  0.000  0.000  0.780
   4.18970    -18.529566  0.780  0.000  0.000  0.000  0.000  0.000  0.000  0.000  0.000  0.780
   4.20153    -18.531362  0.780  0.000  0.000  0.000  0.000  0.000  0.000  0.000  0.000  0.780
   4.21336    -18.532771  0.780  0.000  0.000  0.000  0.000  0.000  0.000  0.000  0.000  0.780
   4.22519    -18.534278  0.780  0.000  0.000  0.000  0.000  0.000  0.000  0.000  0.000  0.780
   4.23702    -18.535532  0.780  0.000  0.000  0.000  0.000  0.000  0.000  0.000  0.000  0.780
   4.24885    -18.536700  0.780  0.000  0.000  0.000  0.000  0.000  0.000  0.000  0.000  0.780
   4.26068    -18.537776  0.780  0.000  0.000  0.000  0.000  0.000  0.000  0.000  0.000  0.780
   4.27251    -18.538410  0.780  0.000  0.000  0.000  0.000  0.000  0.000  0.000  0.000  0.780
   4.28434    -18.539302  0.780  0.000  0.000  0.000  0.000  0.000  0.000  0.000  0.000  0.780
   4.29617    -18.540098  0.780  0.000  0.000  0.000  0.000  0.000  0.000  0.000  0.000  0.780
   4.30800    -18.540797  0.780  0.000  0.000  0.000  0.000  0.000  0.000  0.000  0.000  0.780
   4.31983    -18.541397  0.780  0.000  0.000  0.000  0.000  0.000  0.000  0.000  0.000  0.780
   4.33166    -18.541723  0.780  0.000  0.000  0.000  0.000  0.000  0.000  0.000  0.000  0.780
   4.34348    -18.542127  0.780  0.000  0.000  0.000  0.000  0.000  0.000  0.000  0.000  0.780
   4.35531    -18.542431  0.780  0.000  0.000  0.000  0.000  0.000  0.000  0.000  0.000  0.780
   4.36714    -18.542634  0.780  0.000  0.000  0.000  0.000  0.000  0.000  0.000  0.000  0.780
   4.37897    -18.542735  0.780  0.000  0.000  0.000  0.000  0.000  0.000  0.000  0.000  0.780
   4.39080    -18.542735  0.780  0.000  0.000  0.000  0.000  0.000  0.000  0.000  0.000  0.780
   4.40263    -18.542634  0.780  0.000  0.000  0.000  0.000  0.000  0.000  0.000  0.000  0.780
   4.41446    -18.542431  0.780  0.000  0.000  0.000  0.000  0.000  0.000  0.000  0.000  0.780
   4.42629    -18.542127  0.780  0.000  0.000  0.000  0.000  0.000  0.000  0.000  0.000  0.780
   4.43812    -18.541723  0.780  0.000  0.000  0.000  0.000  0.000  0.000  0.000  0.000  0.780
   4.44995    -18.541397  0.780  0.000  0.000  0.000  0.000  0.000  0.000  0.000  0.000  0.780
   4.46178    -18.540797  0.780  0.000  0.000  0.000  0.000  0.000  0.000  0.000  0.000  0.780
   4.47361    -18.540098  0.780  0.000  0.000  0.000  0.000  0.000  0.000  0.000  0.000  0.780
   4.48544    -18.539302  0.780  0.000  0.000  0.000  0.000  0.000  0.000  0.000  0.000  0.780
   4.49727    -18.538410  0.780  0.000  0.000  0.000  0.000  0.000  0.000  0.000  0.000  0.780
   4.50910    -18.537776  0.780  0.000  0.000  0.000  0.000  0.000  0.000  0.000  0.000  0.780
   4.52093    -18.536700  0.780  0.000  0.000  0.000  0.000  0.000  0.000  0.000  0.000  0.780
   4.53276    -18.535532  0.780  0.000  0.000  0.000  0.000  0.000  0.000  0.000  0.000  0.780
   4.54459    -18.534278  0.780  0.000  0.000  0.000  0.000  0.000  0.000  0.000  0.000  0.780
   4.55641    -18.532771  0.780  0.000  0.000  0.000  0.000  0.000  0.000  0.000  0.000  0.780
   4.56824    -18.531362  0.780  0.000  0.000  0.000  0.000  0.000  0.000  0.000  0.000  0.780
   4.58007    -18.529566  0.780  0.000  0.000  0.000  0.000  0.000  0.000  0.000  0.000  0.780
   4.59190    -18.528054  0.780  0.000  0.000  0.000  0.000  0.000  0.000  0.000  0.000  0.780
   4.60373    -18.526558  0.780  0.000  0.000  0.000  0.000  0.000  0.000  0.000  0.000  0.780
   4.61556    -18.525271  0.780  0.000  0.000  0.000  0.000  0.000  0.000  0.000  0.000  0.780
 
# Band-Index    2
   4.61556    -18.516532  0.778  0.000  0.000  0.000  0.000  0.000  0.000  0.000  0.000  0.780
   4.60373    -18.513353  0.778  0.000  0.000  0.000  0.000  0.000  0.000  0.000  0.000  0.780
   4.59190    -18.510055  0.780  0.000  0.000  0.000  0.000  0.000  0.000  0.000  0.000  0.780
   4.58007    -18.506833  0.780  0.000  0.000  0.000  0.000  0.000  0.000  0.000  0.000  0.780
   4.56824    -18.504429  0.778  0.000  0.000  0.000  0.000  0.000  0.000  0.000  0.000  0.780
   4.55641    -18.501507  0.780  0.000  0.000  0.000  0.000  0.000  0.000  0.000  0.000  0.780
   4.54459    -18.498758  0.780  0.000  0.000  0.000  0.000  0.000  0.000  0.000  0.000  0.780
   4.53276    -18.496184  0.780  0.000  0.000  0.000  0.000  0.000  0.000  0.000  0.000  0.780
