#K-Path(1/A) Energy-Level(eV)
# NKPTS & NBANDS: 300   8
# Band-Index    1
   0.00000    -19.668503
   0.01720    -19.667652
   0.03440    -19.665149
   0.05160    -19.661168
   0.06880    -19.655591
   0.08600    -19.648371
   0.10320    -19.639547
   0.12040    -19.629028
   0.13760    -19.616961
   0.15480    -19.603282
   0.17200    -19.587913
   0.18920    -19.571014
   0.20640    -19.552419
   0.22360    -19.532273
   0.24080    -19.510443
   0.25800    -19.487091
   0.27520    -19.462036
   0.29240    -19.435464
   0.30960    -19.407206
   0.32680    -19.377431
   0.34400    -19.345960
   0.36120    -19.312870
   0.37840    -19.278312
   0.39560    -19.242042
   0.41280    -19.204277
   0.43000    -19.164819
   0.44720    -19.123699
   0.46440    -19.081196
   0.48160    -19.036996
   0.49880    -18.991155
   0.51600    -18.943881
   0.53320    -18.894879
   0.55040    -18.844296
   0.56760    -18.792316
   0.58480    -18.738592
   0.60200    -18.683318
   0.61920    -18.626639
   0.63640    -18.568215
   0.65360    -18.508281
   0.67080    -18.446908
   0.68800    -18.383826
   0.70520    -18.319218
   0.72240    -18.253064
   0.73960    -18.185618
   0.75680    -18.116470
   0.77400    -18.045779
   0.79120    -17.973744
   0.80840    -17.900000
   0.82560    -17.824739
   0.84280    -17.747990
   0.86000    -17.670082
   0.87720    -17.590359
   0.89440    -17.509194
   0.91160    -17.426523
   0.92880    -17.342645
   0.94600    -17.257100
   0.96320    -17.170147
   0.98040    -17.081754
   0.99760    -16.992200
   1.01480    -16.901006
   1.03200    -16.808374
   1.04920    -16.714387
   1.06640    -16.619000
   1.08360    -16.522574
   1.10080    -16.424465
   1.11800    -16.325216
   1.13520    -16.224651
   1.15240    -16.123134
   1.16960    -16.020027
   1.18680    -15.915716
   1.20400    -15.810196
   1.22120    -15.703600
   1.23840    -15.596173
   1.25560    -15.487301
   1.27280    -15.377376
   1.29000    -15.266422
   1.30720    -15.154604
   1.32440    -15.042098
   1.34160    -14.928416
   1.35880    -14.815338
   1.37601    -14.700667
   1.39321    -14.585664
   1.41041    -14.470286
   1.42761    -14.354035
   1.44481    -14.237554
   1.46201    -14.120992
   1.47921    -14.004605
   1.49641    -13.888506
   1.51361    -13.772760
   1.53081    -13.657756
   1.54801    -13.543613
   1.56521    -13.431450
   1.58241    -13.321314
   1.59961    -13.213894
   1.61681    -13.109695
   1.63401    -13.009355
   1.65121    -12.914899
   1.66841    -12.826960
   1.68561    -12.751166
   1.70281    -12.728039
   1.70281    -12.728039
   1.72556    -12.739708
   1.74831    -12.832480
   1.77107    -12.928892
   1.79382    -13.026658
   1.81657    -13.126349
   1.83933    -13.226810
   1.86208    -13.328618
   1.88483    -13.430249
   1.90758    -13.532390
   1.93034    -13.634774
   1.95309    -13.736265
   1.97584    -13.837488
   1.99860    -13.938241
   2.02135    -14.037492
   2.04410    -14.135834
   2.06686    -14.232958
   2.08961    -14.328537
   2.11236    -14.422536
   2.13512    -14.514728
   2.15787    -14.605304
   2.18062    -14.693541
   2.20338    -14.781066
   2.22613    -14.866367
   2.24888    -14.949954
   2.27164    -15.031317
   2.29439    -15.110412
   2.31714    -15.187401
   2.33989    -15.262225
   2.36265    -15.334317
   2.38540    -15.404587
   2.40815    -15.472208
   2.43091    -15.537780
   2.45366    -15.600802
   2.47641    -15.661274
   2.49917    -15.719397
   2.52192    -15.774851
   2.54467    -15.828047
   2.56743    -15.878534
   2.59018    -15.926631
   2.61293    -15.971968
   2.63569    -16.014857
   2.65844    -16.055065
   2.68119    -16.092902
   2.70395    -16.127967
   2.72670    -16.160493
   2.74945    -16.190320
   2.77220    -16.217552
   2.79496    -16.242082
   2.81771    -16.263970
   2.84046    -16.283123
   2.86322    -16.299630
   2.88597    -16.313641
   2.90872    -16.324793
   2.93148    -16.333221
   2.95423    -16.338989
   2.97698    -16.342230
   2.99974    -16.342637
   3.02249    -16.340104
   3.04524    -16.335244
   3.06800    -16.327539
   3.09075    -16.317135
   3.11350    -16.304008
   3.13626    -16.288355
   3.15901    -16.269795
   3.18176    -16.248680
   3.20452    -16.224701
   3.22727    -16.198343
   3.25002    -16.169174
   3.27277    -16.137406
   3.29553    -16.102996
   3.31828    -16.066132
   3.34103    -16.026416
   3.36379    -15.983936
   3.38654    -15.939086
   3.40929    -15.891604
   3.43205    -15.841787
   3.45480    -15.789201
   3.47755    -15.734226
   3.50031    -15.676551
   3.52306    -15.616914
   3.54581    -15.554699
   3.56857    -15.490267
   3.59132    -15.423707
   3.61407    -15.355087
   3.63683    -15.284491
   3.65958    -15.212076
   3.68233    -15.137954
   3.70508    -15.062546
   3.72784    -14.986040
   3.75059    -14.909206
   3.77334    -14.831892
   3.79610    -14.755544
   3.81885    -14.680906
   3.84160    -14.609749
   3.86436    -14.544018
   3.88711    -14.486729
   3.90986    -14.441205
   3.93262    -14.411605
   3.95537    -14.401391
   3.95537    -14.401391
   3.97026    -14.412362
   3.98516    -14.444140
   4.00006    -14.493273
   4.01495    -14.555402
   4.02985    -14.627725
   4.04474    -14.707013
   4.05964    -14.791190
   4.07453    -14.878681
   4.08943    -14.968479
   4.10432    -15.059507
   4.11922    -15.151814
   4.13411    -15.244555
   4.14901    -15.337353
   4.16391    -15.430327
   4.17880    -15.522896
   4.19370    -15.615316
   4.20859    -15.707215
   4.22349    -15.798558
   4.23838    -15.889289
   4.25328    -15.979169
   4.26817    -16.068248
   4.28307    -16.156632
   4.29796    -16.244249
   4.31286    -16.331048
   4.32775    -16.416715
   4.34265    -16.501693
   4.35755    -16.585662
   4.37244    -16.668674
   4.38734    -16.750508
   4.40223    -16.831279
   4.41713    -16.911246
   4.43202    -16.990078
   4.44692    -17.068001
   4.46181    -17.144681
   4.47671    -17.220484
   4.49160    -17.295043
   4.50650    -17.368698
   4.52139    -17.441247
   4.53629    -17.512575
   4.55119    -17.582905
   4.56608    -17.652154
   4.58098    -17.720304
   4.59587    -17.787078
   4.61077    -17.852973
   4.62566    -17.917773
   4.64056    -17.981438
   4.65545    -18.043804
   4.67035    -18.105203
   4.68524    -18.165215
   4.70014    -18.224331
   4.71503    -18.282174
   4.72993    -18.338990
   4.74483    -18.394626
   4.75972    -18.448980
   4.77462    -18.502195
   4.78951    -18.554352
   4.80441    -18.605353
   4.81930    -18.655063
   4.83420    -18.703725
   4.84909    -18.751076
   4.86399    -18.797296
   4.87888    -18.842431
   4.89378    -18.886383
   4.90867    -18.929149
   4.92357    -18.970549
   4.93847    -19.010879
   4.95336    -19.050068
   4.96826    -19.088000
   4.98315    -19.124829
   4.99805    -19.160373
   5.01294    -19.194744
   5.02784    -19.227988
   5.04273    -19.259922
   5.05763    -19.290687
   5.07252    -19.320336
   5.08742    -19.348726
   5.10232    -19.375957
   5.11721    -19.401909
   5.13211    -19.426673
   5.14700    -19.450286
   5.16190    -19.472584
   5.17679    -19.493774
   5.19169    -19.513736
   5.20658    -19.532519
   5.22148    -19.549996
   5.23637    -19.566371
   5.25127    -19.581483
   5.26616    -19.595376
   5.28106    -19.608071
   5.29596    -19.619529
   5.31085    -19.629808
   5.32575    -19.638870
   5.34064    -19.646701
   5.35554    -19.653331
   5.37043    -19.658694
   5.38533    -19.662959
   5.40022    -19.665978
   5.41512    -19.667827
   5.43001    -19.668503
 
 
# Band-Index    2
   5.43001     -7.714374
   5.41512     -7.713548
   5.40022     -7.711533
   5.38533     -7.709071
   5.37043     -7.703998
   5.35554     -7.697592
   5.34064     -7.689622
   5.32575     -7.680106
   5.31085     -7.669227
   5.29596     -7.656792
   5.28106     -7.643033
   5.26616     -7.627909
   5.25127     -7.610270
   5.23637     -7.591931
   5.22148     -7.572352
   5.20658     -7.551320
   5.19169     -7.528968
   5.17679     -7.504893
   5.16190     -7.480568
   5.14700     -7.453818
   5.13211     -7.425733
   5.11721     -7.396280
   5.10232     -7.365391
   5.08742     -7.332969
   5.07252     -7.298542
   5.05763     -7.261974
   5.04273     -7.225335
   5.02784     -7.187938
   5.01294     -7.148346
   4.99805     -7.107504
   4.98315     -7.065276
   4.96826     -7.021511
   4.95336     -6.976602
   4.93847     -6.930203
   4.92357     -6.883191
   4.90867     -6.834063
   4.89378     -6.783534
   4.87888     -6.730307
   4.86399     -6.676940
   4.84909     -6.622467
   4.83420     -6.566828
   4.81930     -6.509839
   4.80441     -6.465088
   4.78951     -6.595602
   4.77462     -6.726670
   4.75972     -6.859404
   4.74483     -6.992807
   4.72993     -7.125707
   4.71503     -7.259958
   4.70014     -7.394687
   4.68524     -7.527345
   4.67035     -7.662336
   4.65545     -7.797125
   4.64056     -7.934404
   4.62566     -8.068846
   4.61077     -8.204133
   4.59587     -8.340364
   4.58098     -8.474156
   4.56608     -8.609343
   4.55119     -8.744612
   4.53629     -8.880125
   4.52139     -9.015347
   4.50650     -9.150850
   4.49160     -9.285236
   4.47671     -9.418942
   4.46181     -9.552949
   4.44692     -9.686811
   4.43202     -9.818895
   4.41713     -9.952628
   4.40223    -10.084399
   4.38734    -10.216062
   4.37244    -10.347374
   4.35755    -10.476565
   4.34265    -10.606838
   4.32775    -10.734942
   4.31286    -10.864279
   4.29796    -10.991875
   4.28307    -11.118774
   4.26817    -11.245878
   4.25328    -11.370578
   4.23838    -11.495814
   4.22349    -11.619042
   4.20859    -11.740892
   4.19370    -11.863252
   4.17880    -11.982939
   4.16391    -12.100696
   4.14901    -12.218359
   4.13411    -12.333371
   4.11922    -12.446231
   4.10432    -12.556843
   4.08943    -12.664111
   4.07453    -12.768007
   4.05964    -12.868246
   4.04474    -12.964240
   4.02985    -13.053767
   4.01495    -13.134464
   4.00006    -13.203807
   3.98516    -13.257600
   3.97026    -13.291780
   3.95537    -13.303461
   3.95537    -13.303461
   3.93262    -13.290910
   3.90986    -13.254865
   3.88711    -13.197762
   3.86436    -13.123883
   3.84160    -13.038865
   3.81885    -12.943461
   3.79610    -12.839732
   3.77334    -12.730593
   3.75059    -12.615357
   3.72784    -12.495868
   3.70508    -12.372382
   3.68233    -12.246112
   3.65958    -12.117348
   3.63683    -11.986076
   3.61407    -11.852186
   3.59132    -11.717286
   3.56857    -11.580476
   3.54581    -11.442698
   3.52306    -11.304915
   3.50031    -11.166370
   3.47755    -11.027512
   3.45480    -10.889679
   3.43205    -10.752304
   3.40929    -10.617114
   3.38654    -10.484310
   3.36379    -10.355808
   3.34103    -10.232109
   3.31828    -10.116816
   3.29553    -10.010796
   3.27277     -9.917964
   3.25002     -9.840674
   3.22727     -9.783141
   3.20452     -9.747011
   3.18176     -9.733340
   3.15901     -9.739824
   3.13626     -9.766098
   3.11350     -9.805953
   3.09075     -9.857379
   3.06800     -9.917921
   3.04524     -9.985585
   3.02249    -10.057734
   2.99974    -10.133123
   2.97698    -10.210541
   2.95423    -10.289046
   2.93148    -10.368430
   2.90872    -10.448881
   2.88597    -10.528426
   2.86322    -10.608378
   2.84046    -10.686960
   2.81771    -10.765538
   2.79496    -10.842153
   2.77220    -10.918523
   2.74945    -10.992547
   2.72670    -11.065879
   2.70395    -11.137057
   2.68119    -11.206680
   2.65844    -11.275135
   2.63569    -11.341599
   2.61293    -11.405592
   2.59018    -11.467852
   2.56743    -11.528708
   2.54467    -11.587729
   2.52192    -11.644048
   2.49917    -11.697760
   2.47641    -11.749677
   2.45366    -11.799834
   2.43091    -11.846610
   2.40815    -11.891863
   2.38540    -11.935540
   2.36265    -11.977367
   2.33989    -12.016290
   2.31714    -12.052874
   2.29439    -12.087390
   2.27164    -12.119302
   2.24888    -12.149421
   2.22613    -12.176666
   2.20338    -12.201908
   2.18062    -12.224762
   2.15787    -12.245801
   2.13512    -12.264407
   2.11236    -12.281741
   2.08961    -12.295842
   2.06686    -12.308558
   2.04410    -12.319612
   2.02135    -12.329372
   1.99860    -12.337742
   1.97584    -12.345721
   1.95309    -12.353145
   1.93034    -12.360867
   1.90758    -12.369916
   1.88483    -12.380426
   1.86208    -12.394538
   1.83933    -12.413570
   1.81657    -12.439886
   1.79382    -12.474611
   1.77107    -12.519108
   1.74831    -12.574748
   1.72556    -12.641774
   1.70281    -12.641821
   1.70281    -12.641821
   1.68561    -12.623900
   1.66841    -12.560862
   1.65121    -12.491123
   1.63401    -12.418809
   1.61681    -12.345327
   1.59961    -12.269826
   1.58241    -12.192982
   1.56521    -12.114627
   1.54801    -12.034890
   1.53081    -11.953752
   1.51361    -11.872478
   1.49641    -11.789697
   1.47921    -11.704802
   1.46201    -11.618748
   1.44481    -11.531406
   1.42761    -11.442984
   1.41041    -11.353995
   1.39321    -11.262490
   1.37601    -11.169749
   1.35880    -11.076085
   1.34160    -10.980815
   1.32440    -10.884711
   1.30720    -10.788317
   1.29000    -10.689144
   1.27280    -10.589347
   1.25560    -10.487951
   1.23840    -10.385343
   1.22120    -10.281803
   1.20400    -10.177729
   1.18680    -10.072051
   1.16960     -9.964729
   1.15240     -9.856772
   1.13520     -9.747063
   1.11800     -9.636333
   1.10080     -9.525073
   1.08360     -9.416035
   1.06640     -9.304157
   1.04920     -9.191852
   1.03200     -9.076947
   1.01480     -8.961555
   0.99760     -8.845702
   0.98040     -8.728407
   0.96320     -8.611879
   0.94600     -8.493226
   0.92880     -8.372477
   0.91160     -8.252057
   0.89440     -8.131774
   0.87720     -8.008596
   0.86000     -7.886371
   0.84280     -7.764247
   0.82560     -7.640174
   0.80840     -7.516344
   0.79120     -7.390559
   0.77400     -7.265651
   0.75680     -7.139664
   0.73960     -7.013401
   0.72240     -6.886281
   0.70520     -6.761200
   0.68800     -6.634583
   0.67080     -6.507201
   0.65360     -6.381517
   0.63640     -6.405526
   0.61920     -6.474458
   0.60200     -6.541277
   0.58480     -6.606587
   0.56760     -6.671958
   0.55040     -6.733276
   0.53320     -6.793137
   0.51600     -6.851177
   0.49880     -6.907221
   0.48160     -6.961637
   0.46440     -7.013512
   0.44720     -7.064065
   0.43000     -7.112960
   0.41280     -7.159299
   0.39560     -7.204321
   0.37840     -7.247618
   0.36120     -7.288642
   0.34400     -7.328078
   0.32680     -7.365503
   0.30960     -7.401771
   0.29240     -7.435707
   0.27520     -7.468708
   0.25800     -7.498721
   0.24080     -7.526662
   0.22360     -7.552753
   0.20640     -7.576742
   0.18920     -7.598502
   0.17200     -7.618578
   0.15480     -7.636977
   0.13760     -7.654210
   0.12040     -7.668710
   0.10320     -7.681404
   0.08600     -7.691932
   0.06880     -7.700720
   0.05160     -7.706187
   0.03440     -7.711016
   0.01720     -7.713414
   0.00000     -7.714374
 
 
# Band-Index    3
   0.00000     -3.064447
   0.01720     -3.064670
   0.03440     -3.072904
   0.05160     -3.088413
   0.06880     -3.112801
   0.08600     -3.138992
   0.10320     -3.175783
   0.12040     -3.215996
   0.13760     -3.264107
   0.15480     -3.316986
   0.17200     -3.376928
   0.18920     -3.443310
   0.20640     -3.511687
   0.22360     -3.589040
   0.24080     -3.669452
   0.25800     -3.754427
   0.27520     -3.840850
   0.29240     -3.933894
   0.30960     -4.029967
   0.32680     -4.127579
   0.34400     -4.231866
   0.36120     -4.337728
   0.37840     -4.446906
   0.39560     -4.555912
   0.41280     -4.669048
   0.43000     -4.784201
   0.44720     -4.898817
   0.46440     -5.017560
   0.48160     -5.138360
   0.49880     -5.257744
   0.51600     -5.380591
   0.53320     -5.503193
   0.55040     -5.626735
   0.56760     -5.752055
   0.58480     -5.875615
   0.60200     -6.001804
   0.61920     -6.128837
   0.63640     -6.253046
   0.65360     -6.335186
   0.67080     -6.263084
   0.68800     -6.189137
   0.70520     -6.113404
   0.72240     -6.035891
   0.73960     -5.957511
   0.75680     -5.877027
   0.77400     -5.956415
   0.79120     -6.062536
   0.80840     -6.168870
   0.82560     -6.275584
   0.84280     -6.382287
   0.86000     -6.487810
   0.87720     -6.595341
   0.89440     -6.704298
   0.91160     -6.811705
   0.92880     -6.919602
   0.94600     -7.027229
   0.96320     -7.134807
   0.98040     -7.240030
   0.99760     -7.347433
   1.01480     -7.454003
   1.03200     -7.560462
   1.04920     -7.667644
   1.06640     -7.772865
   1.08360     -7.878198
   1.10080     -7.980443
   1.11800     -8.084241
   1.13520     -8.188657
   1.15240     -8.291446
   1.16960     -8.393020
   1.18680     -8.494125
   1.20400     -8.594011
   1.22120     -8.692361
   1.23840     -8.790110
   1.25560     -8.887282
   1.27280     -8.983352
   1.29000     -9.078107
   1.30720     -9.172067
   1.32440     -9.262607
   1.34160     -9.353358
   1.35880     -9.444229
   1.37601     -9.532588
   1.39321     -9.619713
   1.41041     -9.705829
   1.42761     -9.787409
   1.44481     -9.868717
   1.46201     -9.947936
   1.47921    -10.024973
   1.49641    -10.099475
   1.51361    -10.169941
   1.53081    -10.238292
   1.54801    -10.303509
   1.56521    -10.365544
   1.58241    -10.423446
   1.59961    -10.476190
   1.61681    -10.524144
   1.63401    -10.565183
   1.65121    -10.600715
   1.66841    -10.627020
   1.68561    -10.644110
   1.70281    -10.651907
   1.70281    -10.651907
   1.72556    -10.637251
   1.74831    -10.601449
   1.77107    -10.547000
   1.79382    -10.473227
   1.81657    -10.383232
   1.83933    -10.277376
   1.86208    -10.160964
   1.88483    -10.032065
   1.90758     -9.896007
   1.93034     -9.751986
   1.95309     -9.603228
   1.97584     -9.449462
   1.99860     -9.292608
   2.02135     -9.134318
   2.04410     -8.973154
   2.06686     -8.812271
   2.08961     -8.650166
   2.11236     -8.488450
   2.13512     -8.328172
   2.15787     -8.168826
   2.18062     -8.011301
   2.20338     -7.858720
   2.22613     -7.707354
   2.24888     -7.561745
   2.27164     -7.417866
   2.29439     -7.280125
   2.31714     -7.148630
   2.33989     -7.022921
   2.36265     -6.901745
   2.38540     -6.791883
   2.40815     -6.687131
   2.43091     -6.591902
   2.45366     -6.505815
   2.47641     -6.428067
   2.49917     -6.361226
   2.52192     -6.302750
   2.54467     -6.258428
   2.56743     -6.222301
   2.59018     -6.198943
   2.61293     -6.186768
   2.63569     -6.183875
   2.65844     -6.193927
   2.68119     -6.213100
   2.70395     -6.245197
   2.72670     -6.287120
   2.74945     -6.337608
   2.77220     -6.396888
   2.79496     -6.467687
   2.81771     -6.545705
   2.84046     -6.628412
   2.86322     -6.721871
   2.88597     -6.820038
   2.90872     -6.922967
   2.93148     -7.030133
   2.95423     -7.141255
   2.97698     -7.255800
   2.99974     -7.372032
   3.02249     -7.487023
   3.04524     -7.602975
   3.06800     -7.717051
   3.09075     -7.823809
   3.11350     -7.924768
   3.13626     -8.014150
   3.15901     -8.090289
   3.18176     -8.149800
   3.20452     -8.188605
   3.22727     -8.205819
   3.25002     -8.201560
   3.27277     -8.179079
   3.29553     -8.140049
   3.31828     -8.088585
   3.34103     -8.026730
   3.36379     -7.958928
   3.38654     -7.884655
   3.40929     -7.805443
   3.43205     -7.724204
   3.45480     -7.642744
   3.47755     -7.559883
   3.50031     -7.475893
   3.52306     -7.393997
   3.54581     -7.310774
   3.56857     -7.230877
   3.59132     -7.153799
   3.61407     -7.077000
   3.63683     -7.003692
   3.65958     -6.933032
   3.68233     -6.867540
   3.70508     -6.804802
   3.72784     -6.746461
   3.75059     -6.692362
   3.77334     -6.642924
   3.79610     -6.598708
   3.81885     -6.559746
   3.84160     -6.526360
