#  frequency dependent      REAL DIELECTRIC FUNCTION (independent particle, no local field effects)
#     E(ev)      X         Y         Z        XY        YZ        ZX
#  --------------------------------------------------------------------------------------
    0.000000   12.658606   12.658606   12.658606    0.000000   -0.000000    0.000000
    0.026027   12.659136   12.659136   12.659136    0.000000   -0.000000    0.000000
    0.052055   12.660718   12.660718   12.660718    0.000000   -0.000000    0.000000
    0.078082   12.663353   12.663353   12.663353    0.000000   -0.000000    0.000000
    0.104109   12.667044   12.667044   12.667044    0.000000   -0.000000    0.000000
    0.130137   12.671792   12.671792   12.671792    0.000000   -0.000000    0.000000
    0.156164   12.677604   12.677604   12.677604    0.000000   -0.000000    0.000000
    0.182191   12.684481   12.684481   12.684481    0.000000   -0.000000    0.000000
    0.208219   12.692420   12.692420   12.692420    0.000000   -0.000000    0.000000
    0.234246   12.701437   12.701437   12.701437    0.000000   -0.000000    0.000000
    0.260273   12.711539   12.711539   12.711539    0.000000   -0.000000    0.000000
    0.286301   12.722726   12.722726   12.722726    0.000000   -0.000000    0.000000
    0.312328   12.735003   12.735003   12.735003    0.000000   -0.000000    0.000000
    0.338355   12.748377   12.748377   12.748377    0.000000   -0.000000    0.000000
    0.364383   12.762867   12.762867   12.762867    0.000000   -0.000000    0.000000
    0.390410   12.778473   12.778473   12.778473    0.000000   -0.000000    0.000000
    0.416437   12.795203   12.795203   12.795203    0.000000   -0.000000    0.000000
    0.442465   12.813081   12.813081   12.813081    0.000000   -0.000000    0.000000
    0.468492   12.832109   12.832109   12.832109    0.000000   -0.000000    0.000000
    0.494520   12.852300   12.852300   12.852300    0.000000   -0.000000    0.000000
    0.520547   12.873660   12.873660   12.873660    0.000000   -0.000000    0.000000
    0.546574   12.896224   12.896224   12.896224    0.000000   -0.000000    0.000000
    0.572602   12.919991   12.919991   12.919991    0.000000   -0.000000    0.000000
    0.598629   12.944978   12.944978   12.944978    0.000000   -0.000000    0.000000
    0.624656   12.971206   12.971206   12.971206    0.000000   -0.000000    0.000000
    0.650684   12.998683   12.998683   12.998683    0.000000   -0.000000    0.000000
    0.676711   13.027442   13.027442   13.027442    0.000000   -0.000000    0.000000
    0.702738   13.057497   13.057497   13.057497    0.000000   -0.000000    0.000000
    0.728766   13.088865   13.088865   13.088865    0.000000   -0.000000    0.000000
    0.754793   13.121577   13.121577   13.121577    0.000000   -0.000000    0.000000
    0.780820   13.155651   13.155651   13.155651    0.000000   -0.000000    0.000000
    0.806848   13.191110   13.191110   13.191110    0.000000   -0.000000    0.000000
    0.832875   13.227983   13.227983   13.227983    0.000000   -0.000000    0.000000
    0.858902   13.266299   13.266299   13.266299    0.000000   -0.000000    0.000000
    0.884930   13.306085   13.306085   13.306085    0.000000   -0.000000    0.000000
    0.910957   13.347368   13.347368   13.347368    0.000000   -0.000000    0.000000
    0.936984   13.390189   13.390189   13.390189    0.000000   -0.000000    0.000000
    0.963012   13.434570   13.434570   13.434570    0.000000   -0.000000    0.000000
    0.989039   13.480559   13.480559   13.480559    0.000000   -0.000000    0.000000
    1.015066   13.528173   13.528173   13.528173    0.000000   -0.000000    0.000000
    1.041094   13.577478   13.577478   13.577478    0.000000   -0.000000    0.000000
    1.067121   13.628492   13.628492   13.628492    0.000000   -0.000000    0.000000
    1.093148   13.681264   13.681264   13.681264    0.000000   -0.000000    0.000000
    1.119176   13.735851   13.735851   13.735851    0.000000   -0.000000    0.000000
    1.145203   13.792281   13.792281   13.792281    0.000000   -0.000000    0.000000
    1.171230   13.850622   13.850622   13.850622    0.000000   -0.000000    0.000000
    1.197258   13.910912   13.910912   13.910912    0.000000   -0.000000    0.000000
    1.223285   13.973224   13.973224   13.973224    0.000000   -0.000000    0.000000
    1.249312   14.037599   14.037599   14.037599    0.000000   -0.000000    0.000000
    1.275340   14.104106   14.104106   14.104106    0.000000   -0.000000    0.000000
    1.301367   14.172811   14.172811   14.172811    0.000000   -0.000000    0.000000
    1.327394   14.243775   14.243775   14.243775    0.000000   -0.000000    0.000000
    1.353422   14.317089   14.317089   14.317089    0.000000   -0.000000    0.000000
    1.379449   14.392813   14.392813   14.392813    0.000000   -0.000000    0.000000
    1.405476   14.471024   14.471024   14.471024    0.000000   -0.000000    0.000000
    1.431504   14.551814   14.551814   14.551814    0.000000   -0.000000    0.000000
    1.457531   14.635278   14.635278   14.635278    0.000000   -0.000000    0.000000
    1.483559   14.721501   14.721501   14.721501    0.000000   -0.000000    0.000000
    1.509586   14.810593   14.810593   14.810593    0.000000   -0.000000    0.000000
    1.535613   14.902661   14.902661   14.902661    0.000000   -0.000000    0.000000
    1.561641   14.997813   14.997813   14.997813    0.000000   -0.000000    0.000000
    1.587668   15.096172   15.096172   15.096172    0.000000   -0.000000    0.000000
    1.613695   15.197871   15.197871   15.197871    0.000000   -0.000000    0.000000
    1.639723   15.303037   15.303037   15.303037    0.000000   -0.000000    0.000000
    1.665750   15.411826   15.411826   15.411826    0.000000   -0.000000    0.000000
    1.691777   15.524384   15.524384   15.524384    0.000000   -0.000000    0.000000
    1.717805   15.640881   15.640881   15.640881    0.000000   -0.000000    0.000000
    1.743832   15.761499   15.761499   15.761499    0.000000   -0.000000    0.000000
    1.769859   15.886422   15.886422   15.886422    0.000000   -0.000000    0.000000
    1.795887   16.015860   16.015860   16.015860    0.000000   -0.000000    0.000000
    1.821914   16.150027   16.150027   16.150027    0.000000   -0.000000    0.000000
    1.847941   16.289167   16.289167   16.289167    0.000000   -0.000000    0.000000
    1.873969   16.433518   16.433518   16.433518    0.000000   -0.000000    0.000000
    1.899996   16.583367   16.583367   16.583367    0.000000   -0.000000    0.000000
    1.926023   16.739014   16.739014   16.739014    0.000000   -0.000000    0.000000
    1.952051   16.900771   16.900771   16.900771    0.000000   -0.000000    0.000000
    1.978078   17.068983   17.068983   17.068983    0.000000   -0.000000    0.000000
    2.004105   17.244035   17.244035   17.244035    0.000000   -0.000000    0.000000
    2.030133   17.426349   17.426349   17.426349    0.000000   -0.000000    0.000000
    2.056160   17.616365   17.616365   17.616365    0.000000   -0.000000    0.000000
    2.082187   17.814581   17.814581   17.814581    0.000000   -0.000000    0.000000
    2.108215   18.021534   18.021534   18.021534    0.000000   -0.000000    0.000000
    2.134242   18.237842   18.237842   18.237842    0.000000   -0.000000    0.000000
    2.160269   18.464168   18.464168   18.464168    0.000000   -0.000000    0.000000
    2.186297   18.701228   18.701228   18.701228    0.000000   -0.000000    0.000000
    2.212324   18.949848   18.949848   18.949848    0.000000   -0.000000    0.000000
    2.238351   19.210931   19.210931   19.210931    0.000000   -0.000000    0.000000
    2.264379   19.485521   19.485521   19.485521    0.000000   -0.000000    0.000000
    2.290406   19.774727   19.774727   19.774727    0.000000   -0.000000    0.000000
    2.316433   20.079896   20.079896   20.079896    0.000000   -0.000000    0.000000
    2.342461   20.402472   20.402472   20.402472    0.000000   -0.000000    0.000000
    2.368488   20.744101   20.744101   20.744101    0.000000   -0.000000    0.000000
    2.394516   21.106723   21.106723   21.106723    0.000000   -0.000000    0.000000
    2.420543   21.492464   21.492464   21.492464    0.000000   -0.000000    0.000000
    2.446570   21.903785   21.903785   21.903785    0.000000   -0.000000    0.000000
    2.472598   22.343466   22.343466   22.343466    0.000000   -0.000000    0.000000
    2.498625   22.814563   22.814563   22.814563    0.000000   -0.000000    0.000000
    2.524652   23.320352   23.320352   23.320352    0.000000   -0.000000    0.000000
    2.550680   23.864027   23.864027   23.864027    0.000000   -0.000000    0.000000
    2.576707   24.448012   24.448012   24.448012    0.000000   -0.000000    0.000000
    2.602734   25.072545   25.072545   25.072545    0.000000   -0.000000    0.000000
    2.628762   25.732732   25.732732   25.732732    0.000000   -0.000000    0.000000
    2.654789   26.414477   26.414477   26.414477    0.000000   -0.000000    0.000000
    2.680816   27.091805   27.091805   27.091805    0.000000   -0.000000    0.000000
    2.706844   27.732834   27.732834   27.732834    0.000000   -0.000000    0.000000
    2.732871   28.313844   28.313844   28.313844    0.000000   -0.000000    0.000000
    2.758898   28.822800   28.822800   28.822800    0.000000   -0.000000    0.000000
    2.784926   29.246915   29.246915   29.246915    0.000000   -0.000000    0.000000
    2.810953   29.563075   29.563075   29.563075    0.000000   -0.000000    0.000000
    2.836980   29.743151   29.743151   29.743151    0.000000    0.000000    0.000000
    2.863008   29.770873   29.770873   29.770873    0.000000    0.000000   -0.000000
    2.889035   29.656145   29.656145   29.656145    0.000000    0.000000   -0.000000
    2.915062   29.431368   29.431368   29.431368    0.000000   -0.000000   -0.000000
    2.941090   29.134982   29.134982   29.134982    0.000000   -0.000000   -0.000000
    2.967117   28.798179   28.798179   28.798179    0.000000   -0.000000    0.000000
    2.993144   28.440793   28.440793   28.440793    0.000000   -0.000000    0.000000
    3.019172   28.073207   28.073207   28.073207    0.000000   -0.000000    0.000000
    3.045199   27.700088   27.700088   27.700088   -0.000000   -0.000000    0.000000
    3.071226   27.324341   27.324341   27.324341   -0.000000   -0.000000    0.000000
    3.097254   26.949194   26.949194   26.949194   -0.000000   -0.000000    0.000000
    3.123281   26.578710   26.578710   26.578710    0.000000   -0.000000    0.000000
    3.149308   26.215352   26.215352   26.215352    0.000000   -0.000000    0.000000
    3.175336   25.856435   25.856435   25.856435    0.000000   -0.000000    0.000000
    3.201363   25.495799   25.495799   25.495799    0.000000   -0.000000    0.000000
    3.227390   25.129848   25.129848   25.129848    0.000000   -0.000000    0.000000
    3.253418   24.761445   24.761445   24.761445    0.000000   -0.000000    0.000000
    3.279445   24.400277   24.400277   24.400277    0.000000   -0.000000    0.000000
    3.305472   24.058323   24.058323   24.058323    0.000000   -0.000000    0.000000
    3.331500   23.743480   23.743480   23.743480    0.000000   -0.000000    0.000000
    3.357527   23.458030   23.458030   23.458030    0.000000   -0.000000    0.000000
    3.383555   23.200565   23.200565   23.200565    0.000000   -0.000000    0.000000
    3.409582   22.966247   22.966247   22.966247    0.000000   -0.000000    0.000000
    3.435609   22.745943   22.745943   22.745943    0.000000   -0.000000    0.000000
    3.461637   22.526694   22.526694   22.526694    0.000000   -0.000000    0.000000
    3.487664   22.294723   22.294723   22.294723    0.000000   -0.000000    0.000000
    3.513691   22.040322   22.040322   22.040322    0.000000   -0.000000    0.000000
    3.539719   21.760022   21.760022   21.760022    0.000000   -0.000000    0.000000
    3.565746   21.450312   21.450312   21.450312    0.000000   -0.000000   -0.000000
    3.591773   21.096586   21.096586   21.096586    0.000000   -0.000000   -0.000000
    3.617801   20.666808   20.666808   20.666808   -0.000000   -0.000000   -0.000000
    3.643828   20.115121   20.115121   20.115121   -0.000000   -0.000000   -0.000000
    3.669855   19.394567   19.394567   19.394567   -0.000000   -0.000000   -0.000000
    3.695883   18.469829   18.469829   18.469829    0.000000   -0.000000   -0.000000
    3.721910   17.314595   17.314595   17.314595    0.000000   -0.000000   -0.000000
    3.747937   15.901274   15.901274   15.901274   -0.000000    0.000000   -0.000000
    3.773965   14.205864   14.205864   14.205864   -0.000000    0.000000   -0.000000
    3.799992   12.227677   12.227677   12.227677   -0.000000    0.000000   -0.000000
    3.826019   10.002178   10.002178   10.002178   -0.000000    0.000000   -0.000000
    3.852047    7.593660    7.593660    7.593660   -0.000000    0.000000   -0.000000
    3.878074    5.080725    5.080725    5.080725   -0.000000    0.000000   -0.000000
    3.904101    2.550311    2.550311    2.550311    0.000000    0.000000   -0.000000
    3.930129    0.095541    0.095541    0.095541    0.000000    0.000000    0.000000
    3.956156   -2.192237   -2.192237   -2.192237    0.000000    0.000000    0.000000
    3.982183   -4.235225   -4.235225   -4.235225    0.000000    0.000000    0.000000
    4.008211   -5.977219   -5.977219   -5.977219    0.000000    0.000000    0.000000
    4.034238   -7.383854   -7.383854   -7.383854    0.000000    0.000000    0.000000
    4.060265   -8.437584   -8.437584   -8.437584    0.000000    0.000000    0.000000
    4.086293   -9.138027   -9.138027   -9.138027    0.000000    0.000000    0.000000
    4.112320   -9.513116   -9.513116   -9.513116    0.000000    0.000000    0.000000
    4.138347   -9.626310   -9.626310   -9.626310    0.000000    0.000000    0.000000
    4.164375   -9.561386   -9.561386   -9.561386    0.000000    0.000000    0.000000
    4.190402   -9.394235   -9.394235   -9.394235    0.000000    0.000000    0.000000
    4.216429   -9.177695   -9.177695   -9.177695    0.000000    0.000000    0.000000
    4.242457   -8.943339   -8.943339   -8.943339    0.000000    0.000000    0.000000
    4.268484   -8.708491   -8.708491   -8.708491    0.000000    0.000000    0.000000
    4.294512   -8.480355   -8.480355   -8.480355    0.000000    0.000000    0.000000
    4.320539   -8.258028   -8.258028   -8.258028    0.000000    0.000000   -0.000000
    4.346566   -8.037795   -8.037795   -8.037795    0.000000    0.000000   -0.000000
    4.372594   -7.818604   -7.818604   -7.818604    0.000000    0.000000   -0.000000
    4.398621   -7.602188   -7.602188   -7.602188    0.000000    0.000000   -0.000000
    4.424648   -7.392378   -7.392378   -7.392378    0.000000    0.000000   -0.000000
    4.450676   -7.199848   -7.199848   -7.199848    0.000000    0.000000   -0.000000
    4.476703   -7.054560   -7.054560   -7.054560    0.000000    0.000000   -0.000000
    4.502730   -7.023081   -7.023081   -7.023081    0.000000    0.000000   -0.000000
    4.528758   -7.217552   -7.217552   -7.217552    0.000000    0.000000    0.000000
    4.554785   -7.752314   -7.752314   -7.752314    0.000000    0.000000    0.000000
    4.580812   -8.601228   -8.601228   -8.601228   -0.000000    0.000000   -0.000000
    4.606840   -9.508472   -9.508472   -9.508472   -0.000000    0.000000   -0.000000
    4.632867  -10.202418  -10.202418  -10.202418   -0.000000   -0.000000   -0.000000
    4.658894  -10.620731  -10.620731  -10.620731   -0.000000   -0.000000   -0.000000
    4.684922  -10.841160  -10.841160  -10.841160   -0.000000   -0.000000   -0.000000
    4.710949  -10.950016  -10.950016  -10.950016   -0.000000   -0.000000   -0.000000
    4.736976  -11.000748  -11.000748  -11.000748   -0.000000   -0.000000   -0.000000
    4.763004  -11.019896  -11.019896  -11.019896   -0.000000   -0.000000   -0.000000
    4.789031  -11.019137  -11.019137  -11.019137   -0.000000   -0.000000   -0.000000
    4.815058  -11.003851  -11.003851  -11.003851   -0.000000   -0.000000   -0.000000
    4.841086  -10.977355  -10.977355  -10.977355   -0.000000   -0.000000   -0.000000
    4.867113  -10.942658  -10.942658  -10.942658   -0.000000   -0.000000   -0.000000
    4.893140  -10.904278  -10.904278  -10.904278   -0.000000   -0.000000   -0.000000
    4.919168  -10.867544  -10.867544  -10.867544   -0.000000   -0.000000   -0.000000
    4.945195  -10.833880  -10.833880  -10.833880   -0.000000   -0.000000   -0.000000
    4.971222  -10.798016  -10.798016  -10.798016   -0.000000   -0.000000   -0.000000
    4.997250  -10.754622  -10.754622  -10.754622   -0.000000    0.000000   -0.000000
    5.023277  -10.704704  -10.704704  -10.704704   -0.000000    0.000000   -0.000000
    5.049304  -10.652564  -10.652564  -10.652564   -0.000000    0.000000   -0.000000
    5.075332  -10.601358  -10.601358  -10.601358   -0.000000    0.000000   -0.000000
    5.101359  -10.552330  -10.552330  -10.552330   -0.000000    0.000000   -0.000000
    5.127386  -10.506104  -10.506104  -10.506104   -0.000000    0.000000   -0.000000
    5.153414  -10.463968  -10.463968  -10.463968   -0.000000    0.000000   -0.000000
    5.179441  -10.428104  -10.428104  -10.428104   -0.000000    0.000000   -0.000000
    5.205468  -10.401060  -10.401060  -10.401060   -0.000000    0.000000   -0.000000
    5.231496  -10.384596  -10.384596  -10.384596   -0.000000    0.000000    0.000000
    5.257523  -10.377846  -10.377846  -10.377846   -0.000000    0.000000    0.000000
    5.283551  -10.375061  -10.375061  -10.375061   -0.000000    0.000000    0.000000
    5.309578  -10.366425  -10.366425  -10.366425   -0.000000    0.000000    0.000000
    5.335605  -10.343905  -10.343905  -10.343905   -0.000000    0.000000    0.000000
    5.361633  -10.304800  -10.304800  -10.304800   -0.000000    0.000000    0.000000
    5.387660  -10.251028  -10.251028  -10.251028   -0.000000    0.000000    0.000000
    5.413687  -10.187278  -10.187278  -10.187278   -0.000000    0.000000    0.000000
    5.439715  -10.118076  -10.118076  -10.118076   -0.000000    0.000000    0.000000
    5.465742  -10.046039  -10.046039  -10.046039   -0.000000    0.000000    0.000000
    5.491769   -9.971885   -9.971885   -9.971885   -0.000000    0.000000    0.000000
    5.517797   -9.895192   -9.895192   -9.895192   -0.000000    0.000000    0.000000
    5.543824   -9.815480   -9.815480   -9.815480   -0.000000    0.000000    0.000000
    5.569851   -9.733534   -9.733534   -9.733534   -0.000000    0.000000    0.000000
    5.595879   -9.651404   -9.651404   -9.651404   -0.000000    0.000000    0.000000
    5.621906   -9.571170   -9.571170   -9.571170   -0.000000    0.000000    0.000000
    5.647933   -9.493913   -9.493913   -9.493913   -0.000000    0.000000    0.000000
    5.673961   -9.419518   -9.419518   -9.419518   -0.000000    0.000000    0.000000
    5.699988   -9.347069   -9.347069   -9.347069   -0.000000    0.000000    0.000000
    5.726015   -9.275364   -9.275364   -9.275364   -0.000000    0.000000    0.000000
    5.752043   -9.203259   -9.203259   -9.203259   -0.000000    0.000000    0.000000
    5.778070   -9.129841   -9.129841   -9.129841   -0.000000    0.000000    0.000000
    5.804097   -9.054554   -9.054554   -9.054554   -0.000000    0.000000    0.000000
    5.830125   -8.977224   -8.977224   -8.977224   -0.000000    0.000000    0.000000
    5.856152   -8.898078   -8.898078   -8.898078   -0.000000    0.000000    0.000000
    5.882179   -8.817683   -8.817683   -8.817683   -0.000000    0.000000    0.000000
    5.908207   -8.736681   -8.736681   -8.736681   -0.000000    0.000000    0.000000
    5.934234   -8.655597   -8.655597   -8.655597   -0.000000    0.000000    0.000000
    5.960261   -8.574734   -8.574734   -8.574734   -0.000000    0.000000    0.000000
    5.986289   -8.493957   -8.493957   -8.493957   -0.000000   -0.000000    0.000000
    6.012316   -8.412489   -8.412489   -8.412489   -0.000000   -0.000000    0.000000
