  #energy          xx             yy              zz              xy              yz              zx
  0.00000000E+00  0.31494625E+00  0.31494625E+00  0.31494625E+00  0.10000000E+01  0.10000000E+01  0.10000000E+01
  0.26000000E-01  0.31495386E+00  0.31495386E+00  0.31495386E+00  0.10000000E+01  0.10000000E+01  0.10000000E+01
  0.52100000E-01  0.31497820E+00  0.31497820E+00  0.31497820E+00  0.10000000E+01  0.10000000E+01  0.10000000E+01
  0.78100000E-01  0.31501927E+00  0.31501927E+00  0.31501927E+00  0.10000000E+01  0.10000000E+01  0.10000000E+01
  0.10410000E+00  0.31507402E+00  0.31507402E+00  0.31507402E+00  0.10000000E+01  0.10000000E+01  0.10000000E+01
  0.13010000E+00  0.31514699E+00  0.31514699E+00  0.31514699E+00  0.10000000E+01  0.10000000E+01  0.10000000E+01
  0.15620000E+00  0.31523513E+00  0.31523513E+00  0.31523513E+00  0.10000000E+01  0.10000000E+01  0.10000000E+01
  0.18220000E+00  0.31533994E+00  0.31533994E+00  0.31533994E+00  0.10000000E+01  0.10000000E+01  0.10000000E+01
  0.20820000E+00  0.31545986E+00  0.31545986E+00  0.31545986E+00  0.10000000E+01  0.10000000E+01  0.10000000E+01
  0.23420000E+00  0.31559640E+00  0.31559640E+00  0.31559640E+00  0.10000000E+01  0.10000000E+01  0.10000000E+01
  0.26030000E+00  0.31574951E+00  0.31574951E+00  0.31574951E+00  0.10000000E+01  0.10000000E+01  0.10000000E+01
  0.28630000E+00  0.31591916E+00  0.31591916E+00  0.31591916E+00  0.10000000E+01  0.10000000E+01  0.10000000E+01
  0.31230000E+00  0.31610531E+00  0.31610531E+00  0.31610531E+00  0.10000000E+01  0.10000000E+01  0.10000000E+01
  0.33840000E+00  0.31630791E+00  0.31630791E+00  0.31630791E+00  0.10000000E+01  0.10000000E+01  0.10000000E+01
  0.36440000E+00  0.31652690E+00  0.31652690E+00  0.31652690E+00  0.10000000E+01  0.10000000E+01  0.10000000E+01
  0.39040000E+00  0.31676224E+00  0.31676224E+00  0.31676224E+00  0.10000000E+01  0.10000000E+01  0.10000000E+01
  0.41640000E+00  0.31701387E+00  0.31701387E+00  0.31701387E+00  0.10000000E+01  0.10000000E+01  0.10000000E+01
  0.44250000E+00  0.31728322E+00  0.31728322E+00  0.31728322E+00  0.10000000E+01  0.10000000E+01  0.10000000E+01
  0.46850000E+00  0.31756873E+00  0.31756873E+00  0.31756873E+00  0.10000000E+01  0.10000000E+01  0.10000000E+01
  0.49450000E+00  0.31787182E+00  0.31787182E+00  0.31787182E+00  0.10000000E+01  0.10000000E+01  0.10000000E+01
  0.52050000E+00  0.31819242E+00  0.31819242E+00  0.31819242E+00  0.10000000E+01  0.10000000E+01  0.10000000E+01
  0.54660000E+00  0.31852893E+00  0.31852893E+00  0.31852893E+00  0.10000000E+01  0.10000000E+01  0.10000000E+01
  0.57260000E+00  0.31888427E+00  0.31888427E+00  0.31888427E+00  0.10000000E+01  0.10000000E+01  0.10000000E+01
  0.59860000E+00  0.31925683E+00  0.31925683E+00  0.31925683E+00  0.10000000E+01  0.10000000E+01  0.10000000E+01
  0.62470000E+00  0.31964653E+00  0.31964653E+00  0.31964653E+00  0.10000000E+01  0.10000000E+01  0.10000000E+01
  0.65070000E+00  0.32005475E+00  0.32005475E+00  0.32005475E+00  0.10000000E+01  0.10000000E+01  0.10000000E+01
  0.67670000E+00  0.32047989E+00  0.32047989E+00  0.32047989E+00  0.10000000E+01  0.10000000E+01  0.10000000E+01
  0.70270000E+00  0.32092477E+00  0.32092477E+00  0.32092477E+00  0.10000000E+01  0.10000000E+01  0.10000000E+01
  0.72880000E+00  0.32138781E+00  0.32138781E+00  0.32138781E+00  0.10000000E+01  0.10000000E+01  0.10000000E+01
  0.75480000E+00  0.32186888E+00  0.32186888E+00  0.32186888E+00  0.10000000E+01  0.10000000E+01  0.10000000E+01
  0.78080000E+00  0.32236929E+00  0.32236929E+00  0.32236929E+00  0.10000000E+01  0.10000000E+01  0.10000000E+01
  0.80680000E+00  0.32288748E+00  0.32288748E+00  0.32288748E+00  0.10000000E+01  0.10000000E+01  0.10000000E+01
  0.83290000E+00  0.32342615E+00  0.32342615E+00  0.32342615E+00  0.10000000E+01  0.10000000E+01  0.10000000E+01
  0.85890000E+00  0.32398370E+00  0.32398370E+00  0.32398370E+00  0.10000000E+01  0.10000000E+01  0.10000000E+01
  0.88490000E+00  0.32456143E+00  0.32456143E+00  0.32456143E+00  0.10000000E+01  0.10000000E+01  0.10000000E+01
  0.91100000E+00  0.32515916E+00  0.32515916E+00  0.32515916E+00  0.10000000E+01  0.10000000E+01  0.10000000E+01
  0.93700000E+00  0.32577669E+00  0.32577669E+00  0.32577669E+00  0.10000000E+01  0.10000000E+01  0.10000000E+01
  0.96300000E+00  0.32641526E+00  0.32641526E+00  0.32641526E+00  0.10000000E+01  0.10000000E+01  0.10000000E+01
  0.98900000E+00  0.32707464E+00  0.32707464E+00  0.32707464E+00  0.10000000E+01  0.10000000E+01  0.10000000E+01
  0.10151000E+01  0.32775466E+00  0.32775466E+00  0.32775466E+00  0.10000000E+01  0.10000000E+01  0.10000000E+01
  0.10411000E+01  0.32845651E+00  0.32845651E+00  0.32845651E+00  0.10000000E+01  0.10000000E+01  0.10000000E+01
  0.10671000E+01  0.32917991E+00  0.32917991E+00  0.32917991E+00  0.10000000E+01  0.10000000E+01  0.10000000E+01
  0.10931000E+01  0.32992605E+00  0.32992605E+00  0.32992605E+00  0.10000000E+01  0.10000000E+01  0.10000000E+01
  0.11192000E+01  0.33069466E+00  0.33069466E+00  0.33069466E+00  0.10000000E+01  0.10000000E+01  0.10000000E+01
  0.11452000E+01  0.33148543E+00  0.33148543E+00  0.33148543E+00  0.10000000E+01  0.10000000E+01  0.10000000E+01
  0.11712000E+01  0.33229953E+00  0.33229953E+00  0.33229953E+00  0.10000000E+01  0.10000000E+01  0.10000000E+01
  0.11973000E+01  0.33313800E+00  0.33313800E+00  0.33313800E+00  0.10000000E+01  0.10000000E+01  0.10000000E+01
  0.12233000E+01  0.33400052E+00  0.33400052E+00  0.33400052E+00  0.10000000E+01  0.10000000E+01  0.10000000E+01
  0.12493000E+01  0.33488811E+00  0.33488811E+00  0.33488811E+00  0.10000000E+01  0.10000000E+01  0.10000000E+01
  0.12753000E+01  0.33580045E+00  0.33580045E+00  0.33580045E+00  0.10000000E+01  0.10000000E+01  0.10000000E+01
  0.13014000E+01  0.33673848E+00  0.33673848E+00  0.33673848E+00  0.10000000E+01  0.10000000E+01  0.10000000E+01
  0.13274000E+01  0.33770321E+00  0.33770321E+00  0.33770321E+00  0.10000000E+01  0.10000000E+01  0.10000000E+01
  0.13534000E+01  0.33869424E+00  0.33869424E+00  0.33869424E+00  0.10000000E+01  0.10000000E+01  0.10000000E+01
  0.13794000E+01  0.33971241E+00  0.33971241E+00  0.33971241E+00  0.10000000E+01  0.10000000E+01  0.10000000E+01
  0.14055000E+01  0.34075861E+00  0.34075861E+00  0.34075861E+00  0.10000000E+01  0.10000000E+01  0.10000000E+01
  0.14315000E+01  0.34183373E+00  0.34183373E+00  0.34183373E+00  0.10000000E+01  0.10000000E+01  0.10000000E+01
  0.14575000E+01  0.34293852E+00  0.34293852E+00  0.34293852E+00  0.10000000E+01  0.10000000E+01  0.10000000E+01
  0.14836000E+01  0.34407252E+00  0.34407252E+00  0.34407252E+00  0.10000000E+01  0.10000000E+01  0.10000000E+01
  0.15096000E+01  0.34523767E+00  0.34523767E+00  0.34523767E+00  0.10000000E+01  0.10000000E+01  0.10000000E+01
  0.15356000E+01  0.34643474E+00  0.34643474E+00  0.34643474E+00  0.10000000E+01  0.10000000E+01  0.10000000E+01
  0.15616000E+01  0.34766305E+00  0.34766305E+00  0.34766305E+00  0.10000000E+01  0.10000000E+01  0.10000000E+01
  0.15877000E+01  0.34892580E+00  0.34892580E+00  0.34892580E+00  0.10000000E+01  0.10000000E+01  0.10000000E+01
  0.16137000E+01  0.35022230E+00  0.35022230E+00  0.35022230E+00  0.10000000E+01  0.10000000E+01  0.10000000E+01
  0.16397000E+01  0.35155300E+00  0.35155300E+00  0.35155300E+00  0.10000000E+01  0.10000000E+01  0.10000000E+01
  0.16657000E+01  0.35292092E+00  0.35292092E+00  0.35292092E+00  0.10000000E+01  0.10000000E+01  0.10000000E+01
  0.16918000E+01  0.35432640E+00  0.35432640E+00  0.35432640E+00  0.10000000E+01  0.10000000E+01  0.10000000E+01
  0.17178000E+01  0.35576983E+00  0.35576983E+00  0.35576983E+00  0.10000000E+01  0.10000000E+01  0.10000000E+01
  0.17438000E+01  0.35725273E+00  0.35725273E+00  0.35725273E+00  0.10000000E+01  0.10000000E+01  0.10000000E+01
  0.17699000E+01  0.35877644E+00  0.35877644E+00  0.35877644E+00  0.10000000E+01  0.10000000E+01  0.10000000E+01
  0.17959000E+01  0.36034352E+00  0.36034352E+00  0.36034352E+00  0.10000000E+01  0.10000000E+01  0.10000000E+01
  0.18219000E+01  0.36195290E+00  0.36195290E+00  0.36195290E+00  0.10000000E+01  0.10000000E+01  0.10000000E+01
  0.18479000E+01  0.36360926E+00  0.36360926E+00  0.36360926E+00  0.10000000E+01  0.10000000E+01  0.10000000E+01
  0.18740000E+01  0.36531121E+00  0.36531121E+00  0.36531121E+00  0.10000000E+01  0.10000000E+01  0.10000000E+01
  0.19000000E+01  0.36706322E+00  0.36706322E+00  0.36706322E+00  0.10000000E+01  0.10000000E+01  0.10000000E+01
  0.19260000E+01  0.36886499E+00  0.36886499E+00  0.36886499E+00  0.10000000E+01  0.10000000E+01  0.10000000E+01
  0.19521000E+01  0.37072065E+00  0.37072065E+00  0.37072065E+00  0.10000000E+01  0.10000000E+01  0.10000000E+01
  0.19781000E+01  0.37263063E+00  0.37263063E+00  0.37263063E+00  0.10000000E+01  0.10000000E+01  0.10000000E+01
  0.20041000E+01  0.37459763E+00  0.37459763E+00  0.37459763E+00  0.10000000E+01  0.10000000E+01  0.10000000E+01
  0.20301000E+01  0.37662524E+00  0.37662524E+00  0.37662524E+00  0.10000000E+01  0.10000000E+01  0.10000000E+01
  0.20562000E+01  0.37871672E+00  0.37871672E+00  0.37871672E+00  0.10000000E+01  0.10000000E+01  0.10000000E+01
  0.20822000E+01  0.38087308E+00  0.38087308E+00  0.38087308E+00  0.10000000E+01  0.10000000E+01  0.10000000E+01
  0.21082000E+01  0.38309816E+00  0.38309816E+00  0.38309816E+00  0.10000000E+01  0.10000000E+01  0.10000000E+01
  0.21342000E+01  0.38539679E+00  0.38539679E+00  0.38539679E+00  0.10000000E+01  0.10000000E+01  0.10000000E+01
  0.21603000E+01  0.38777322E+00  0.38777322E+00  0.38777322E+00  0.10000000E+01  0.10000000E+01  0.10000000E+01
  0.21863000E+01  0.39022947E+00  0.39022947E+00  0.39022947E+00  0.10000000E+01  0.10000000E+01  0.10000000E+01
  0.22123000E+01  0.39277217E+00  0.39277217E+00  0.39277217E+00  0.10000000E+01  0.10000000E+01  0.10000000E+01
  0.22384000E+01  0.39540672E+00  0.39540672E+00  0.39540672E+00  0.10000000E+01  0.10000000E+01  0.10000000E+01
  0.22644000E+01  0.39813873E+00  0.39813873E+00  0.39813873E+00  0.10000000E+01  0.10000000E+01  0.10000000E+01
  0.22904000E+01  0.40097440E+00  0.40097440E+00  0.40097440E+00  0.10000000E+01  0.10000000E+01  0.10000000E+01
  0.23164000E+01  0.40392227E+00  0.40392227E+00  0.40392227E+00  0.10000000E+01  0.10000000E+01  0.10000000E+01
  0.23425000E+01  0.40699010E+00  0.40699010E+00  0.40699010E+00  0.10000000E+01  0.10000000E+01  0.10000000E+01
  0.23685000E+01  0.41018679E+00  0.41018679E+00  0.41018679E+00  0.10000000E+01  0.10000000E+01  0.10000000E+01
  0.23945000E+01  0.41352404E+00  0.41352404E+00  0.41352404E+00  0.10000000E+01  0.10000000E+01  0.10000000E+01
  0.24205000E+01  0.41701462E+00  0.41701462E+00  0.41701462E+00  0.10000000E+01  0.10000000E+01  0.10000000E+01
  0.24466000E+01  0.42067114E+00  0.42067114E+00  0.42067114E+00  0.10000000E+01  0.10000000E+01  0.10000000E+01
  0.24726000E+01  0.42451039E+00  0.42451039E+00  0.42451039E+00  0.10000000E+01  0.10000000E+01  0.10000000E+01
  0.24986000E+01  0.42854965E+00  0.42854965E+00  0.42854965E+00  0.10000000E+01  0.10000000E+01  0.10000000E+01
  0.25247000E+01  0.43280824E+00  0.43280824E+00  0.43280824E+00  0.10000000E+01  0.10000000E+01  0.10000000E+01
  0.25507000E+01  0.43730472E+00  0.43730472E+00  0.43730472E+00  0.10000000E+01  0.10000000E+01  0.10000000E+01
  0.25767000E+01  0.44205689E+00  0.44205689E+00  0.44205689E+00  0.10000000E+01  0.10000000E+01  0.10000000E+01
  0.26027000E+01  0.44706992E+00  0.44706992E+00  0.44706992E+00  0.10000000E+01  0.10000000E+01  0.10000000E+01
  0.26288000E+01  0.45232509E+00  0.45232509E+00  0.45232509E+00  0.10000000E+01  0.10000000E+01  0.10000000E+01
  0.26548000E+01  0.45775695E+00  0.45775695E+00  0.45775695E+00  0.10000000E+01  0.10000000E+01  0.10000000E+01
  0.26808000E+01  0.46323827E+00  0.46323827E+00  0.46323827E+00  0.10000000E+01  0.10000000E+01  0.10000000E+01
  0.27068000E+01  0.46861529E+00  0.46861529E+00  0.46861529E+00  0.10000000E+01  0.10000000E+01  0.10000000E+01
  0.27329000E+01  0.47378752E+00  0.47378752E+00  0.47378752E+00  0.10000000E+01  0.10000000E+01  0.10000000E+01
  0.27589000E+01  0.47873675E+00  0.47873675E+00  0.47873675E+00  0.10000000E+01  0.10000000E+01  0.10000000E+01
  0.27849000E+01  0.48345685E+00  0.48345685E+00  0.48345685E+00  0.10000000E+01  0.10000000E+01  0.10000000E+01
  0.28110000E+01  0.48788972E+00  0.48788972E+00  0.48788972E+00  0.10000000E+01  0.10000000E+01  0.10000000E+01
  0.28370000E+01  0.49191967E+00  0.49191967E+00  0.49191967E+00  0.10000000E+01  0.10000000E+01  0.10000000E+01
  0.28630000E+01  0.49543330E+00  0.49543330E+00  0.49543330E+00  0.10000000E+01  0.10000000E+01  0.10000000E+01
  0.28890000E+01  0.49839514E+00  0.49839514E+00  0.49839514E+00  0.10000000E+01  0.10000000E+01  0.10000000E+01
  0.29151000E+01  0.50087067E+00  0.50087067E+00  0.50087067E+00  0.10000000E+01  0.10000000E+01  0.10000000E+01
  0.29411000E+01  0.50298128E+00  0.50298128E+00  0.50298128E+00  0.10000000E+01  0.10000000E+01  0.10000000E+01
  0.29671000E+01  0.50485250E+00  0.50485250E+00  0.50485250E+00  0.10000000E+01  0.10000000E+01  0.10000000E+01
  0.29931000E+01  0.50658161E+00  0.50658161E+00  0.50658161E+00  0.10000000E+01  0.10000000E+01  0.10000000E+01
  0.30192000E+01  0.50823285E+00  0.50823285E+00  0.50823285E+00  0.10000000E+01  0.10000000E+01  0.10000000E+01
  0.30452000E+01  0.50984050E+00  0.50984050E+00  0.50984050E+00  0.10000000E+01  0.10000000E+01  0.10000000E+01
  0.30712000E+01  0.51142261E+00  0.51142261E+00  0.51142261E+00  0.10000000E+01  0.10000000E+01  0.10000000E+01
  0.30973000E+01  0.51299574E+00  0.51299574E+00  0.51299574E+00  0.10000000E+01  0.10000000E+01  0.10000000E+01
  0.31233000E+01  0.51458140E+00  0.51458140E+00  0.51458140E+00  0.10000000E+01  0.10000000E+01  0.10000000E+01
  0.31493000E+01  0.51621139E+00  0.51621139E+00  0.51621139E+00  0.10000000E+01  0.10000000E+01  0.10000000E+01
  0.31753000E+01  0.51790192E+00  0.51790192E+00  0.51790192E+00  0.10000000E+01  0.10000000E+01  0.10000000E+01
  0.32014000E+01  0.51964217E+00  0.51964217E+00  0.51964217E+00  0.10000000E+01  0.10000000E+01  0.10000000E+01
  0.32274000E+01  0.52139917E+00  0.52139917E+00  0.52139917E+00  0.10000000E+01  0.10000000E+01  0.10000000E+01
  0.32534000E+01  0.52314498E+00  0.52314498E+00  0.52314498E+00  0.10000000E+01  0.10000000E+01  0.10000000E+01
  0.32794000E+01  0.52488172E+00  0.52488172E+00  0.52488172E+00  0.10000000E+01  0.10000000E+01  0.10000000E+01
  0.33055000E+01  0.52665018E+00  0.52665018E+00  0.52665018E+00  0.10000000E+01  0.10000000E+01  0.10000000E+01
  0.33315000E+01  0.52851372E+00  0.52851372E+00  0.52851372E+00  0.10000000E+01  0.10000000E+01  0.10000000E+01
  0.33575000E+01  0.53053163E+00  0.53053163E+00  0.53053163E+00  0.10000000E+01  0.10000000E+01  0.10000000E+01
  0.33836000E+01  0.53275702E+00  0.53275702E+00  0.53275702E+00  0.10000000E+01  0.10000000E+01  0.10000000E+01
  0.34096000E+01  0.53523824E+00  0.53523824E+00  0.53523824E+00  0.10000000E+01  0.10000000E+01  0.10000000E+01
  0.34356000E+01  0.53801360E+00  0.53801360E+00  0.53801360E+00  0.10000000E+01  0.10000000E+01  0.10000000E+01
  0.34616000E+01  0.54110221E+00  0.54110221E+00  0.54110221E+00  0.10000000E+01  0.10000000E+01  0.10000000E+01
  0.34877000E+01  0.54449534E+00  0.54449534E+00  0.54449534E+00  0.10000000E+01  0.10000000E+01  0.10000000E+01
  0.35137000E+01  0.54817428E+00  0.54817428E+00  0.54817428E+00  0.10000000E+01  0.10000000E+01  0.10000000E+01
  0.35397000E+01  0.55214385E+00  0.55214385E+00  0.55214385E+00  0.10000000E+01  0.10000000E+01  0.10000000E+01
  0.35657000E+01  0.55645558E+00  0.55645558E+00  0.55645558E+00  0.10000000E+01  0.10000000E+01  0.10000000E+01
  0.35918000E+01  0.56119313E+00  0.56119313E+00  0.56119313E+00  0.10000000E+01  0.10000000E+01  0.10000000E+01
  0.36178000E+01  0.56642642E+00  0.56642642E+00  0.56642642E+00  0.10000000E+01  0.10000000E+01  0.10000000E+01
  0.36438000E+01  0.57216425E+00  0.57216425E+00  0.57216425E+00  0.10000000E+01  0.10000000E+01  0.10000000E+01
  0.36699000E+01  0.57834744E+00  0.57834744E+00  0.57834744E+00  0.10000000E+01  0.10000000E+01  0.10000000E+01
  0.36959000E+01  0.58489112E+00  0.58489112E+00  0.58489112E+00  0.10000000E+01  0.10000000E+01  0.10000000E+01
  0.37219000E+01  0.59173877E+00  0.59173877E+00  0.59173877E+00  0.10000000E+01  0.10000000E+01  0.10000000E+01
  0.37479000E+01  0.59885143E+00  0.59885143E+00  0.59885143E+00  0.10000000E+01  0.10000000E+01  0.10000000E+01
  0.37740000E+01  0.60615368E+00  0.60615368E+00  0.60615368E+00  0.10000000E+01  0.10000000E+01  0.10000000E+01
  0.38000000E+01  0.61351365E+00  0.61351365E+00  0.61351365E+00  0.10000000E+01  0.10000000E+01  0.10000000E+01
  0.38260000E+01  0.62078032E+00  0.62078032E+00  0.62078032E+00  0.10000000E+01  0.10000000E+01  0.10000000E+01
  0.38520000E+01  0.62782728E+00  0.62782728E+00  0.62782728E+00  0.10000000E+01  0.10000000E+01  0.10000000E+01
  0.38781000E+01  0.63455685E+00  0.63455685E+00  0.63455685E+00  0.10000000E+01  0.10000000E+01  0.10000000E+01
  0.39041000E+01  0.64086759E+00  0.64086759E+00  0.64086759E+00  0.10000000E+01  0.10000000E+01  0.10000000E+01
  0.39301000E+01  0.64664537E+00  0.64664537E+00  0.64664537E+00  0.10000000E+01  0.10000000E+01  0.10000000E+01
  0.39562000E+01  0.65176706E+00  0.65176706E+00  0.65176706E+00  0.10000000E+01  0.10000000E+01  0.10000000E+01
  0.39822000E+01  0.65611669E+00  0.65611669E+00  0.65611669E+00  0.10000000E+01  0.10000000E+01  0.10000000E+01
  0.40082000E+01  0.65958275E+00  0.65958275E+00  0.65958275E+00  0.10000000E+01  0.10000000E+01  0.10000000E+01
  0.40342000E+01  0.66204335E+00  0.66204335E+00  0.66204335E+00  0.10000000E+01  0.10000000E+01  0.10000000E+01
  0.40603000E+01  0.66334953E+00  0.66334953E+00  0.66334953E+00  0.10000000E+01  0.10000000E+01  0.10000000E+01
  0.40863000E+01  0.66335647E+00  0.66335647E+00  0.66335647E+00  0.10000000E+01  0.10000000E+01  0.10000000E+01
  0.41123000E+01  0.66202811E+00  0.66202811E+00  0.66202811E+00  0.10000000E+01  0.10000000E+01  0.10000000E+01
  0.41383000E+01  0.65953763E+00  0.65953763E+00  0.65953763E+00  0.10000000E+01  0.10000000E+01  0.10000000E+01
  0.41644000E+01  0.65623546E+00  0.65623546E+00  0.65623546E+00  0.10000000E+01  0.10000000E+01  0.10000000E+01
  0.41904000E+01  0.65249384E+00  0.65249384E+00  0.65249384E+00  0.10000000E+01  0.10000000E+01  0.10000000E+01
  0.42164000E+01  0.64859628E+00  0.64859628E+00  0.64859628E+00  0.10000000E+01  0.10000000E+01  0.10000000E+01
  0.42425000E+01  0.64472016E+00  0.64472016E+00  0.64472016E+00  0.10000000E+01  0.10000000E+01  0.10000000E+01
  0.42685000E+01  0.64096861E+00  0.64096861E+00  0.64096861E+00  0.10000000E+01  0.10000000E+01  0.10000000E+01
  0.42945000E+01  0.63737449E+00  0.63737449E+00  0.63737449E+00  0.10000000E+01  0.10000000E+01  0.10000000E+01
  0.43205000E+01  0.63391066E+00  0.63391066E+00  0.63391066E+00  0.10000000E+01  0.10000000E+01  0.10000000E+01
  0.43466000E+01  0.63054268E+00  0.63054268E+00  0.63054268E+00  0.10000000E+01  0.10000000E+01  0.10000000E+01
  0.43726000E+01  0.62727600E+00  0.62727600E+00  0.62727600E+00  0.10000000E+01  0.10000000E+01  0.10000000E+01
  0.43986000E+01  0.62415999E+00  0.62415999E+00  0.62415999E+00  0.10000000E+01  0.10000000E+01  0.10000000E+01
  0.44246000E+01  0.62128779E+00  0.62128779E+00  0.62128779E+00  0.10000000E+01  0.10000000E+01  0.10000000E+01
  0.44507000E+01  0.61886238E+00  0.61886238E+00  0.61886238E+00  0.10000000E+01  0.10000000E+01  0.10000000E+01
  0.44767000E+01  0.61733873E+00  0.61733873E+00  0.61733873E+00  0.10000000E+01  0.10000000E+01  0.10000000E+01
  0.45027000E+01  0.61753763E+00  0.61753763E+00  0.61753763E+00  0.10000000E+01  0.10000000E+01  0.10000000E+01
  0.45288000E+01  0.62055600E+00  0.62055600E+00  0.62055600E+00  0.10000000E+01  0.10000000E+01  0.10000000E+01
  0.45548000E+01  0.62706879E+00  0.62706879E+00  0.62706879E+00  0.10000000E+01  0.10000000E+01  0.10000000E+01
