#K-Path(1/A) Energy-Level(eV)
# NKPTS & NBANDS: 300   8
# Band-Index    1
   0.00000    -12.245901
   0.02361    -12.244085
   0.04723    -12.238622
   0.07084    -12.229516
   0.09446    -12.216769
   0.11807    -12.200378
   0.14169    -12.180348
   0.16530    -12.156681
   0.18892    -12.129390
   0.21253    -12.098492
   0.23615    -12.063983
   0.25976    -12.025868
   0.28338    -11.984149
   0.30699    -11.938852
   0.33061    -11.889979
   0.35422    -11.837546
   0.37784    -11.781559
   0.40145    -11.722038
   0.42507    -11.659008
   0.44868    -11.592470
   0.47230    -11.522447
   0.49591    -11.448954
   0.51953    -11.372011
   0.54314    -11.291638
   0.56675    -11.207858
   0.59037    -11.120695
   0.61398    -11.030191
   0.63760    -10.936353
   0.66121    -10.839211
   0.68483    -10.738794
   0.70844    -10.635134
   0.73206    -10.528262
   0.75567    -10.418214
   0.77929    -10.305027
   0.80290    -10.188746
   0.82652    -10.069412
   0.85013     -9.947060
   0.87375     -9.821735
   0.89736     -9.693483
   0.92098     -9.562338
   0.94459     -9.428376
   0.96821     -9.291646
   0.99182     -9.152200
   1.01544     -9.010110
   1.03905     -8.865427
   1.06267     -8.718211
   1.08628     -8.568529
   1.10989     -8.416452
   1.13351     -8.262052
   1.15712     -8.105405
   1.15712     -8.105405
   1.16547     -8.105488
   1.17382     -8.105769
   1.18217     -8.106237
   1.19052     -8.106896
   1.19887     -8.107749
   1.20722     -8.108800
   1.21557     -8.110055
   1.22392     -8.111519
   1.23227     -8.113196
   1.24062     -8.115098
   1.24896     -8.117233
   1.25731     -8.119608
   1.26566     -8.122235
   1.27401     -8.125124
   1.28236     -8.128288
   1.29071     -8.131740
   1.29906     -8.135493
   1.30741     -8.139561
   1.31576     -8.143961
   1.32411     -8.148707
   1.33246     -8.153816
   1.34080     -8.159308
   1.34915     -8.165196
   1.35750     -8.171501
   1.36585     -8.178237
   1.37420     -8.185432
   1.38255     -8.193102
   1.39090     -8.201266
   1.39925     -8.209945
   1.40760     -8.219167
   1.41595     -8.228937
   1.42430     -8.239281
   1.43264     -8.250216
   1.44099     -8.261768
   1.44934     -8.273953
   1.45769     -8.286787
   1.46604     -8.300288
   1.47439     -8.314473
   1.48274     -8.329355
   1.49109     -8.344951
   1.49944     -8.361273
   1.50779     -8.378331
   1.51614     -8.396136
   1.52448     -8.414695
   1.53283     -8.434015
   1.54118     -8.454101
   1.54953     -8.474955
   1.55788     -8.496577
   1.56623     -8.518968
   1.56623     -8.518968
   1.59128     -8.590707
   1.61632     -8.669133
   1.64137     -8.753918
   1.66642     -8.844597
   1.69147     -8.940595
   1.71651     -9.041293
   1.74156     -9.146023
   1.76661     -9.254102
   1.79165     -9.364860
   1.81670     -9.477658
   1.84175     -9.591889
   1.86680     -9.706970
   1.89184     -9.822385
   1.91689     -9.937661
   1.94194    -10.052370
   1.96699    -10.166128
   1.99203    -10.278590
   2.01708    -10.389465
   2.04213    -10.498457
   2.06717    -10.605326
   2.09222    -10.709851
   2.11727    -10.811841
   2.14232    -10.911119
   2.16736    -11.007522
   2.19241    -11.100921
   2.21746    -11.191201
   2.24251    -11.278246
   2.26755    -11.361944
   2.29260    -11.442205
   2.31765    -11.518957
   2.34269    -11.592123
   2.36774    -11.661636
   2.39279    -11.727437
   2.41784    -11.789493
   2.44288    -11.847734
   2.46793    -11.902123
   2.49298    -11.952619
   2.51803    -11.999188
   2.54307    -12.041800
   2.56812    -12.080428
   2.59317    -12.115050
   2.61821    -12.145656
   2.64326    -12.172216
   2.66831    -12.194714
   2.69336    -12.213136
   2.71840    -12.227472
   2.74345    -12.237712
   2.76850    -12.243857
   2.79355    -12.245901
   2.79355    -12.245901
   2.81400    -12.244539
   2.83445    -12.240444
   2.85490    -12.233616
   2.87535    -12.224061
   2.89580    -12.211775
   2.91625    -12.196772
   2.93670    -12.179048
   2.95715    -12.158623
   2.97760    -12.135500
   2.99806    -12.109696
   3.01851    -12.081229
   3.03896    -12.050104
   3.05941    -12.016332
   3.07986    -11.979942
   3.10031    -11.940950
   3.12076    -11.899380
   3.14121    -11.855257
   3.16166    -11.808614
   3.18211    -11.759482
   3.20257    -11.707905
   3.22302    -11.653924
   3.24347    -11.597583
   3.26392    -11.538935
   3.28437    -11.478041
   3.30482    -11.414971
   3.32527    -11.349804
   3.34572    -11.282631
   3.36617    -11.213554
   3.38662    -11.142697
   3.40708    -11.070197
   3.42753    -10.996230
   3.44798    -10.920969
   3.46843    -10.844635
   3.48888    -10.767486
   3.50933    -10.689828
   3.52978    -10.612023
   3.55023    -10.534498
   3.57068    -10.457760
   3.59113    -10.382413
   3.61159    -10.309179
   3.63204    -10.238872
   3.65249    -10.172459
   3.67294    -10.111040
   3.69339    -10.055829
   3.71384    -10.008127
   3.73429     -9.969254
   3.75474     -9.940431
   3.77519     -9.922684
   3.79564     -9.916688
   3.79564     -9.916688
   3.81234     -9.915777
   3.82904     -9.913043
   3.84574     -9.908488
   3.86244     -9.902113
   3.87914     -9.893920
   3.89583     -9.883904
   3.91253     -9.872078
   3.92923     -9.858445
   3.94593     -9.843008
   3.96263     -9.825773
   3.97932     -9.806740
   3.99602     -9.785919
   4.01272     -9.763315
   4.02942     -9.738937
   4.04612     -9.712793
   4.06282     -9.684891
   4.07951     -9.655243
   4.09621     -9.623860
   4.11291     -9.590752
   4.12961     -9.555933
   4.14631     -9.519421
   4.16300     -9.481222
   4.17970     -9.441363
   4.19640     -9.399860
   4.21310     -9.356732
   4.22980     -9.311992
   4.24650     -9.265681
   4.26319     -9.217814
   4.27989     -9.168425
   4.29659     -9.117542
   4.31329     -9.065200
   4.32999     -9.011429
   4.34668     -8.956283
   4.36338     -8.899802
   4.38008     -8.842033
   4.39678     -8.783031
   4.41348     -8.722853
   4.43018     -8.661569
   4.44687     -8.599255
   4.46357     -8.535988
   4.48027     -8.471856
   4.49697     -8.406958
   4.51367     -8.341400
   4.53036     -8.275305
   4.54706     -8.208804
   4.56376     -8.142047
   4.58046     -8.075198
   4.59716     -8.008436
   4.61385     -7.941963
   4.61385     -7.941963
   4.62566     -7.942148
   4.63747     -7.942703
   4.64928     -7.943625
   4.66108     -7.944908
   4.67289     -7.946540
   4.68470     -7.948524
   4.69651     -7.950845
   4.70831     -7.953486
   4.72012     -7.956437
   4.73193     -7.959682
   4.74374     -7.963198
   4.75554     -7.966979
   4.76735     -7.970999
   4.77916     -7.975239
   4.79097     -7.979676
   4.80277     -7.984293
   4.81458     -7.989068
   4.82639     -7.993977
   4.83820     -7.998998
   4.85000     -8.004106
   4.86181     -8.009280
   4.87362     -8.014502
   4.88542     -8.019743
   4.89723     -8.024983
   4.90904     -8.030197
   4.92085     -8.035374
   4.93265     -8.040489
   4.94446     -8.045522
   4.95627     -8.050452
   4.96808     -8.055262
   4.97988     -8.059932
   4.99169     -8.064448
   5.00350     -8.068794
   5.01531     -8.072954
   5.02711     -8.076912
   5.03892     -8.080656
   5.05073     -8.084177
   5.06254     -8.087456
   5.07434     -8.090487
   5.08615     -8.093258
   5.09796     -8.095765
   5.10977     -8.097993
   5.12157     -8.099938
   5.13338     -8.101594
   5.14519     -8.102957
   5.15699     -8.104021
   5.16880     -8.104784
   5.18061     -8.105242
   5.19242     -8.105405
 
# Band-Index    2
   5.19242     -8.105405
   5.18061     -8.105242
   5.16880     -8.104784
   5.15699     -8.104021
   5.14519     -8.102957
   5.13338     -8.101594
   5.12157     -8.099938
   5.10977     -8.097993
   5.09796     -8.095765
   5.08615     -8.093258
   5.07434     -8.090487
   5.06254     -8.087456
   5.05073     -8.084177
   5.03892     -8.080656
   5.02711     -8.076912
   5.01531     -8.072954
   5.00350     -8.068794
   4.99169     -8.064448
   4.97988     -8.059932
   4.96808     -8.055262
   4.95627     -8.050452
   4.94446     -8.045522
   4.93265     -8.040489
   4.92085     -8.035374
   4.90904     -8.030197
   4.89723     -8.024983
   4.88542     -8.019743
   4.87362     -8.014502
   4.86181     -8.009280
   4.85000     -8.004106
   4.83820     -7.998998
   4.82639     -7.993977
   4.81458     -7.989068
   4.80277     -7.984293
   4.79097     -7.979676
   4.77916     -7.975239
   4.76735     -7.970999
   4.75554     -7.966979
   4.74374     -7.963198
   4.73193     -7.959682
   4.72012     -7.956437
   4.70831     -7.953486
   4.69651     -7.950845
   4.68470     -7.948524
   4.67289     -7.946540
   4.66108     -7.944908
   4.64928     -7.943625
   4.63747     -7.942703
   4.62566     -7.942148
   4.61385     -7.941963
   4.61385     -7.941963
   4.59716     -7.875996
   4.58046     -7.810776
   4.56376     -7.746554
   4.54706     -7.683627
   4.53036     -7.622284
   4.51367     -7.562844
   4.49697     -7.505634
   4.48027     -7.450978
   4.46357     -7.399222
   4.44687     -7.350678
   4.43018     -7.305634
   4.41348     -7.264350
   4.39678     -7.227028
   4.38008     -7.193821
   4.36338     -7.164808
   4.34668     -7.139997
   4.32999     -7.119323
   4.31329     -7.102659
   4.29659     -7.089806
   4.27989     -7.080528
   4.26319     -7.074544
   4.24650     -7.071553
   4.22980     -7.071236
   4.21310     -7.073274
   4.19640     -7.077348
   4.17970     -7.083154
   4.16300     -7.090407
   4.14631     -7.098834
   4.12961     -7.108178
   4.11291     -7.118218
   4.09621     -7.128743
   4.07951     -7.139561
   4.06282     -7.150502
   4.04612     -7.161413
   4.02942     -7.172156
   4.01272     -7.182610
   3.99602     -7.192666
   3.97932     -7.202228
   3.96263     -7.211212
   3.94593     -7.219540
   3.92923     -7.227155
   3.91253     -7.233997
   3.89583     -7.240019
   3.87914     -7.245179
   3.86244     -7.249444
   3.84574     -7.252788
   3.82904     -7.255191
   3.81234     -7.256639
   3.79564     -7.257123
   3.79564     -7.257123
   3.77519     -7.248562
   3.75474     -7.223112
   3.73429     -7.181456
   3.71384     -7.124604
   3.69339     -7.053801
   3.67294     -6.970364
   3.65249     -6.875605
   3.63204     -6.770765
   3.61159     -6.656953
   3.59113     -6.535159
   3.57068     -6.406234
   3.55023     -6.270907
   3.52978     -6.129802
   3.50933     -5.983464
   3.48888     -5.832353
   3.46843     -5.676866
   3.44798     -5.517350
   3.42753     -5.354112
   3.40708     -5.187409
   3.38662     -5.017528
   3.36617     -4.844666
   3.34572     -4.669032
   3.32527     -4.490830
   3.30482     -4.310248
   3.28437     -4.127484
   3.26392     -3.942727
   3.24347     -3.756173
   3.22302     -3.568028
   3.20257     -3.378518
   3.18211     -3.187883
   3.16166     -2.996376
   3.14121     -2.804292
   3.12076     -2.611970
   3.10031     -2.419791
   3.07986     -2.228205
   3.05941     -2.037748
   3.03896     -1.849061
   3.01851     -1.662926
   2.99806     -1.480304
   2.97760     -1.302377
   2.95715     -1.130635
   2.93670     -0.966915
   2.91625     -0.813598
   2.89580     -0.673549
   2.87535     -0.550261
   2.85490     -0.447742
   2.83445     -0.370284
   2.81400     -0.321864
   2.79355     -0.305370
   2.79355     -0.305370
   2.76850     -0.327393
   2.74345     -0.391369
   2.71840     -0.491838
   2.69336     -0.621783
   2.66831     -0.774336
   2.64326     -0.943579
   2.61821     -1.124825
   2.59317     -1.314477
   2.56812     -1.509832
   2.54307     -1.708834
   2.51803     -1.909940
   2.49298     -2.111985
   2.46793     -2.314036
   2.44288     -2.515383
   2.41784     -2.715462
   2.39279     -2.913817
   2.36774     -3.110083
   2.34269     -3.303958
   2.31765     -3.495196
   2.29260     -3.683581
   2.26755     -3.868942
   2.24251     -4.051140
   2.21746     -4.230031
   2.19241     -4.405506
   2.16736     -4.577467
   2.14232     -4.745829
   2.11727     -4.910515
   2.09222     -5.071458
   2.06717     -5.228612
   2.04213     -5.381897
   2.01708     -5.531284
   1.99203     -5.676713
   1.96699     -5.818154
   1.94194     -5.955570
   1.91689     -6.088929
   1.89184     -6.218203
   1.86680     -6.343358
   1.84175     -6.464370
   1.81670     -6.581211
   1.79165     -6.693860
   1.76661     -6.802295
   1.74156     -6.906499
   1.71651     -7.006448
   1.69147     -7.102129
   1.66642     -7.193541
   1.64137     -7.280635
   1.61632     -7.363419
   1.59128     -7.441875
   1.56623     -7.515994
   1.56623     -7.515994
   1.55788     -7.539734
   1.54953     -7.562992
   1.54118     -7.585764
   1.53283     -7.608052
   1.52448     -7.629856
   1.51614     -7.651174
   1.50779     -7.672007
   1.49944     -7.692354
   1.49109     -7.712215
   1.48274     -7.731589
   1.47439     -7.750482
   1.46604     -7.768883
   1.45769     -7.786797
   1.44934     -7.804223
   1.44099     -7.821161
   1.43264     -7.837612
   1.42430     -7.853575
   1.41595     -7.869049
   1.40760     -7.884034
   1.39925     -7.898526
   1.39090     -7.912532
   1.38255     -7.926049
   1.37420     -7.939077
   1.36585     -7.951614
   1.35750     -7.963667
   1.34915     -7.975224
   1.34080     -7.986290
   1.33246     -7.996865
   1.32411     -8.006950
   1.31576     -8.016544
   1.30741     -8.025646
   1.29906     -8.034258
   1.29071     -8.042378
   1.28236     -8.050008
   1.27401     -8.057145
   1.26566     -8.063790
   1.25731     -8.069943
   1.24896     -8.075605
   1.24062     -8.080774
   1.23227     -8.085451
   1.22392     -8.089638
   1.21557     -8.093331
   1.20722     -8.096532
   1.19887     -8.099240
   1.19052     -8.101456
   1.18217     -8.103180
   1.17382     -8.104411
   1.16547     -8.105149
   1.15712     -8.105405
   1.15712     -8.105405
   1.13351     -7.946569
   1.10989     -7.785668
   1.08628     -7.622754
   1.06267     -7.457930
   1.03905     -7.291265
   1.01544     -7.122862
   0.99182     -6.952808
   0.96821     -6.781197
   0.94459     -6.608125
   0.92098     -6.433690
   0.89736     -6.258000
   0.87375     -6.081143
   0.85013     -5.903219
   0.82652     -5.724328
   0.80290     -5.544570
   0.77929     -5.364033
   0.75567     -5.182840
   0.73206     -5.001079
   0.70844     -4.818858
   0.68483     -4.636268
   0.66121     -4.453404
   0.63760     -4.270365
   0.61398     -4.087251
   0.59037     -3.904139
   0.56675     -3.721183
   0.54314     -3.538471
   0.51953     -3.356124
   0.49591     -3.174273
   0.47230     -2.993056
   0.44868     -2.812633
   0.42507     -2.633195
   0.40145     -2.454956
   0.37784     -2.278175
   0.35422     -2.103160
   0.33061     -1.930287
   0.30699     -1.760020
   0.28338     -1.592911
   0.25976     -1.429650
   0.23615     -1.271086
   0.21253     -1.118268
   0.18892     -0.972471
   0.16530     -0.835294
   0.14169     -0.708605
   0.11807     -0.594655
   0.09446     -0.495944
   0.07084     -0.415187
   0.04723     -0.355079
   0.02361     -0.317940
   0.00000     -0.305370
 
# Band-Index    3
   0.00000     -0.305369
   0.02361     -0.313245
   0.04723     -0.336493
   0.07084     -0.374052
   0.09446     -0.424362
   0.11807     -0.485596
   0.14169     -0.555876
   0.16530     -0.633428
   0.18892     -0.716647
   0.21253     -0.804154
   0.23615     -0.894753
   0.25976     -0.987465
   0.28338     -1.081466
   0.30699     -1.176081
   0.33061     -1.270739
   0.35422     -1.364971
   0.37784     -1.458382
   0.40145     -1.550643
   0.42507     -1.641473
   0.44868     -1.730637
   0.47230     -1.817935
   0.49591     -1.903189
   0.51953     -1.986248
   0.54314     -2.066981
   0.56675     -2.145274
   0.59037     -2.221027
   0.61398     -2.294157
   0.63760     -2.364575
   0.66121     -2.432218
   0.68483     -2.497024
   0.70844     -2.558937
   0.73206     -2.617910
   0.75567     -2.673898
   0.77929     -2.726862
   0.80290     -2.776768
   0.82652     -2.823582
   0.85013     -2.867277
   0.87375     -2.907826
   0.89736     -2.945208
   0.92098     -2.979399
   0.94459     -3.010387
   0.96821     -3.038151
   0.99182     -3.062681
   1.01544     -3.083964
   1.03905     -3.101993
   1.06267     -3.116753
   1.08628     -3.128239
   1.10989     -3.136448
   1.13351     -3.141373
   1.15712     -3.143022
   1.15712     -3.143022
   1.16547     -3.144594
   1.17382     -3.149320
   1.18217     -3.157150
   1.19052     -3.168015
   1.19887     -3.181821
   1.20722     -3.198452
   1.21557     -3.217778
   1.22392     -3.239646
   1.23227     -3.263892
   1.24062     -3.290351
   1.24896     -3.318846
   1.25731     -3.349199
   1.26566     -3.381233
   1.27401     -3.414772
   1.28236     -3.449644
   1.29071     -3.485681
   1.29906     -3.522722
   1.30741     -3.560612
   1.31576     -3.599205
   1.32411     -3.638356
   1.33246     -3.677932
   1.34080     -3.717809
   1.34915     -3.757859
   1.35750     -3.797970
   1.36585     -3.838035
   1.37420     -3.877953
   1.38255     -3.917627
   1.39090     -3.956965
   1.39925     -3.995881
   1.40760     -4.034297
   1.41595     -4.072132
   1.42430     -4.109313
   1.43264     -4.145768
   1.44099     -4.181442
   1.44934     -4.216268
   1.45769     -4.250191
   1.46604     -4.283156
   1.47439     -4.315113
   1.48274     -4.346014
   1.49109     -4.375819
   1.49944     -4.404485
   1.50779     -4.431978
   1.51614     -4.458263
   1.52448     -4.483310
   1.53283     -4.507092
   1.54118     -4.529585
   1.54953     -4.550767
   1.55788     -4.570622
   1.56623     -4.589136
   1.56623     -4.589136
   1.59128     -4.636525
   1.61632     -4.671584
   1.64137     -4.694361
   1.66642     -4.705075
   1.69147     -4.704086
   1.71651     -4.691867
   1.74156     -4.668954
   1.76661     -4.635915
   1.79165     -4.593341
   1.81670     -4.541815
   1.84175     -4.481898
   1.86680     -4.414124
   1.89184     -4.339000
   1.91689     -4.256995
   1.94194     -4.168556
   1.96699     -4.074089
   1.99203     -3.973973
   2.01708     -3.868571
   2.04213     -3.758214
   2.06717     -3.643241
   2.09222     -3.523959
   2.11727     -3.400681
   2.14232     -3.273709
   2.16736     -3.143346
   2.19241     -3.009909
   2.21746     -2.873715
   2.24251     -2.735103
   2.26755     -2.594424
   2.29260     -2.452051
   2.31765     -2.308396
   2.34269     -2.163891
   2.36774     -2.019014
   2.39279     -1.874290
   2.41784     -1.730303
   2.44288     -1.587696
   2.46793     -1.447190
   2.49298     -1.309585
   2.51803     -1.175771
   2.54307     -1.046757
   2.56812     -0.923638
   2.59317     -0.807631
   2.61821     -0.700078
   2.64326     -0.602409
   2.66831     -0.516131
   2.69336     -0.442777
   2.71840     -0.383835
   2.74345     -0.340633
   2.76850     -0.314245
   2.79355     -0.305369
   2.79355     -0.305369
   2.81400     -0.307735
   2.83445     -0.314783
   2.85490     -0.326369
   2.87535     -0.342267
   2.89580     -0.362173
   2.91625     -0.385742
   2.93670     -0.412582
   2.95715     -0.442299
   2.97760     -0.474475
   2.99806     -0.508725
   3.01851     -0.544667
   3.03896     -0.581951
   3.05941     -0.620252
   3.07986     -0.659273
   3.10031     -0.698743
   3.12076     -0.738421
   3.14121     -0.778091
   3.16166     -0.817563
   3.18211     -0.856663
   3.20257     -0.895244
   3.22302     -0.933173
   3.24347     -0.970337
   3.26392     -1.006630
   3.28437     -1.041966
   3.30482     -1.076265
   3.32527     -1.109461
   3.34572     -1.141493
   3.36617     -1.172311
   3.38662     -1.201871
   3.40708     -1.230130
   3.42753     -1.257065
   3.44798     -1.282642
   3.46843     -1.306837
   3.48888     -1.329632
   3.50933     -1.351008
   3.52978     -1.370956
   3.55023     -1.389457
   3.57068     -1.406502
   3.59113     -1.422085
   3.61159     -1.436199
   3.63204     -1.448837
   3.65249     -1.459996
   3.67294     -1.469673
   3.69339     -1.477864
