     #Energy        Au_s        Au_p        Au_d      Au_all
   -11.97578     0.00000     0.00000     0.00000     0.00000
   -11.86178     0.00000     0.00000     0.00000     0.00000
   -11.74778     0.00000     0.00000     0.00000     0.00000
   -11.63378     0.00000     0.00000     0.00000     0.00000
   -11.51978     0.00000     0.00000     0.00000     0.00000
   -11.40578     0.00000     0.00000     0.00000     0.00000
   -11.29178     0.00000     0.00000     0.00000     0.00000
   -11.17778     0.00000     0.00000     0.00000     0.00000
   -11.06378     0.00000     0.00000     0.00000     0.00000
   -10.94978     0.00000     0.00000     0.00000     0.00000
   -10.83578     0.00000     0.00000     0.00000     0.00000
   -10.72178     0.00000     0.00000     0.00000     0.00000
   -10.60778     0.00000     0.00000     0.00000     0.00000
   -10.49378     0.00000     0.00000     0.00000     0.00000
   -10.37978     0.00000     0.00000     0.00000     0.00000
   -10.26678     0.00000     0.00000     0.00000     0.00000
   -10.15278     0.00000     0.00000     0.00000     0.00000
   -10.03878     0.00000     0.00000     0.00000     0.00000
    -9.92478     0.01282     0.00006     0.00000     0.01288
    -9.81078     0.02069     0.00027     0.00001     0.02098
    -9.69678     0.02575     0.00056     0.00005     0.02636
    -9.58278     0.03097     0.00092     0.00011     0.03199
    -9.46878     0.03523     0.00132     0.00020     0.03675
    -9.35478     0.03949     0.00181     0.00034     0.04164
    -9.24078     0.04299     0.00233     0.00054     0.04586
    -9.12678     0.04721     0.00290     0.00081     0.05092
    -9.01278     0.05028     0.00354     0.00119     0.05501
    -8.89878     0.05379     0.00422     0.00166     0.05966
    -8.78478     0.05753     0.00498     0.00228     0.06478
    -8.67078     0.06076     0.00578     0.00309     0.06963
    -8.55678     0.06436     0.00664     0.00413     0.07513
    -8.44278     0.06828     0.00758     0.00544     0.08129
    -8.32878     0.07194     0.00860     0.00719     0.08774
    -8.21478     0.07611     0.00972     0.00947     0.09530
    -8.10078     0.08053     0.01084     0.01226     0.10363
    -7.98678     0.08568     0.01226     0.01644     0.11438
    -7.87278     0.09128     0.01369     0.02191     0.12688
    -7.75878     0.09813     0.01536     0.02972     0.14321
    -7.64478     0.10710     0.01731     0.04224     0.16665
    -7.53078     0.12060     0.01974     0.06531     0.20565
    -7.41678     0.16220     0.02314     0.16840     0.35374
    -7.30278     0.18490     0.02589     0.26060     0.47139
    -7.18878     0.18090     0.02844     0.27700     0.48634
    -7.07478     0.19100     0.03216     0.42730     0.65046
    -6.96078     0.20800     0.03933     0.58490     0.83223
    -6.84678     0.21410     0.04509     0.71030     0.96949
    -6.73278     0.20550     0.04777     0.99790     1.25117
    -6.61878     0.19530     0.05028     1.23400     1.47958
    -6.50478     0.16080     0.04796     1.29700     1.50576
    -6.39078     0.12920     0.04682     1.26000     1.43602
    -6.27678     0.10490     0.04685     1.22200     1.37375
    -6.16278     0.08409     0.04875     1.19000     1.32284
    -6.04878     0.06529     0.05327     1.20900     1.32756
    -5.93478     0.03602     0.04866     1.06200     1.14668
    -5.82078     0.01680     0.04189     0.84910     0.90779
    -5.70678     0.00809     0.04482     0.83950     0.89241
    -5.59278     0.01726     0.07758     1.32700     1.42184
    -5.47978     0.01867     0.07942     1.38800     1.48609
    -5.36578     0.01631     0.07143     1.54600     1.63374
    -5.25178     0.02035     0.06415     1.58400     1.66850
    -5.13778     0.02414     0.05511     1.49700     1.57625
    -5.02378     0.03170     0.07216     1.70700     1.81086
    -4.90978     0.03417     0.07430     1.62800     1.73647
    -4.79578     0.04155     0.08302     1.73400     1.85857
    -4.68178     0.04735     0.09529     2.00100     2.14364
    -4.56778     0.04771     0.10600     2.30400     2.45771
    -4.45378     0.04645     0.11320     3.15200     3.31165
    -4.33978     0.03861     0.09519     2.08300     2.21680
    -4.22578     0.03374     0.08012     1.63200     1.74586
    -4.11178     0.03080     0.05682     1.18200     1.26962
    -3.99778     0.02855     0.08860     1.58200     1.69915
    -3.88378     0.02318     0.06851     1.37800     1.46969
    -3.76978     0.02085     0.06204     1.26800     1.35089
    -3.65578     0.02098     0.05989     1.54600     1.62687
    -3.54178     0.02037     0.05782     1.73900     1.81719
    -3.42778     0.01919     0.05514     1.78400     1.85833
    -3.31378     0.03045     0.05489     2.12200     2.20734
    -3.19978     0.01990     0.04702     1.85700     1.92392
    -3.08578     0.01696     0.04237     1.58400     1.64333
    -2.97178     0.01538     0.03850     1.49400     1.54788
    -2.85778     0.01420     0.03517     1.45000     1.49937
    -2.74378     0.01355     0.03213     1.43400     1.47968
    -2.62978     0.01293     0.02921     1.45900     1.50114
    -2.51578     0.01296     0.02688     1.50600     1.54584
    -2.40178     0.01324     0.02483     1.61300     1.65107
    -2.28778     0.01409     0.02376     1.81300     1.85085
    -2.17378     0.01572     0.02244     2.24000     2.27816
    -2.05978     0.01744     0.02012     2.95000     2.98756
    -1.94578     0.01747     0.01822     2.17200     2.20769
    -1.83178     0.01871     0.01760     1.38300     1.41931
    -1.71778     0.02041     0.01813     1.15900     1.19754
    -1.60378     0.02251     0.01940     0.21540     0.25731
    -1.48978     0.02436     0.02184     0.20940     0.25560
    -1.37578     0.02611     0.02415     0.20310     0.25336
    -1.26178     0.02805     0.02665     0.19350     0.24820
    -1.14778     0.02961     0.02929     0.18840     0.24730
    -1.03378     0.03111     0.03218     0.18330     0.24659
    -0.91978     0.03271     0.03511     0.17630     0.24412
    -0.80578     0.03394     0.03716     0.17170     0.24280
    -0.69278     0.03517     0.03885     0.16710     0.24112
    -0.57878     0.03653     0.04040     0.16140     0.23833
    -0.46478     0.03765     0.04201     0.15710     0.23676
    -0.35078     0.03870     0.04365     0.15320     0.23555
    -0.23678     0.03991     0.04505     0.14810     0.23306
    -0.12278     0.04091     0.04641     0.14410     0.23142
    -0.00878     0.04180     0.04769     0.14030     0.22979
     0.10522     0.04287     0.04900     0.13600     0.22787
     0.21922     0.04383     0.05036     0.13220     0.22639
     0.33322     0.04463     0.05171     0.12870     0.22504
     0.44722     0.04530     0.05266     0.12510     0.22306
     0.56122     0.04627     0.05408     0.12110     0.22145
     0.67522     0.04703     0.05544     0.11760     0.22007
     0.78922     0.04767     0.05675     0.11430     0.21872
     0.90322     0.04838     0.05819     0.11110     0.21767
     1.01722     0.04914     0.06065     0.10800     0.21779
     1.13122     0.04974     0.06154     0.10480     0.21608
     1.24522     0.05020     0.06094     0.10160     0.21274
     1.35922     0.05090     0.06071     0.09840     0.21001
     1.47322     0.05162     0.06038     0.09524     0.20724
     1.58722     0.05241     0.06064     0.09268     0.20573
     1.70122     0.05308     0.05982     0.08957     0.20247
     1.81522     0.05406     0.05946     0.08682     0.20034
     1.92922     0.05487     0.05815     0.08331     0.19633
     2.04322     0.05584     0.05699     0.08020     0.19303
     2.15722     0.05726     0.05597     0.07751     0.19074
     2.27122     0.05914     0.05478     0.07506     0.18898
     2.38522     0.06151     0.05326     0.07259     0.18736
     2.49922     0.06467     0.05196     0.07071     0.18734
     2.61322     0.06757     0.04875     0.06718     0.18350
     2.72722     0.07182     0.04690     0.06537     0.18409
     2.84122     0.07628     0.04470     0.06339     0.18437
     2.95522     0.08240     0.04279     0.06214     0.18733
     3.06922     0.19860     0.04723     0.14250     0.38833
     3.18322     0.18620     0.05018     0.12910     0.36548
     3.29722     0.15490     0.05062     0.10470     0.31022
     3.41122     0.13890     0.05157     0.09343     0.28390
     3.52522     0.12570     0.05230     0.08438     0.26238
     3.63922     0.11500     0.05282     0.07739     0.24521
     3.75322     0.10460     0.05300     0.07173     0.22933
     3.86722     0.09735     0.05322     0.06742     0.21799
     3.98122     0.08437     0.05063     0.06126     0.19626
     4.09522     0.08078     0.05276     0.05979     0.19333
     4.20822     0.07299     0.05319     0.05697     0.18315
     4.32222     0.06857     0.05477     0.05541     0.17875
     4.43622     0.06921     0.06055     0.05659     0.18635
     4.55022     0.07316     0.07588     0.06223     0.21127
     4.66422     0.06669     0.07926     0.06128     0.20723
     4.77822     0.07281     0.08454     0.06345     0.22080
     4.89222     0.07734     0.08485     0.06299     0.22518
     5.00622     0.09029     0.09085     0.06653     0.24767
     5.12022     0.09884     0.09235     0.06757     0.25876
     5.23422     0.10120     0.09184     0.06697     0.26001
     5.34822     0.10360     0.09281     0.06715     0.26356
     5.46222     0.10660     0.09489     0.06817     0.26966
     5.57622     0.10820     0.09452     0.06796     0.27068
     5.69022     0.10980     0.09326     0.06733     0.27039
     5.80422     0.09874     0.09212     0.06278     0.25364
     5.91822     0.09464     0.09032     0.06020     0.24516
     6.03222     0.09177     0.09326     0.05993     0.24496
     6.14622     0.08716     0.08210     0.05303     0.22229
     6.26022     0.08300     0.07852     0.04961     0.21113
     6.37422     0.08000     0.07525     0.04658     0.20183
     6.48822     0.07769     0.07280     0.04443     0.19492
     6.60222     0.07548     0.07048     0.04234     0.18830
     6.71622     0.07360     0.07364     0.04265     0.18989
     6.83022     0.07198     0.07478     0.04216     0.18892
     6.94422     0.07008     0.07480     0.04131     0.18619
     7.05822     0.06821     0.07623     0.04109     0.18553
     7.17222     0.06787     0.08147     0.04336     0.19270
     7.28622     0.06958     0.08983     0.04936     0.20877
     7.40022     0.07542     0.10670     0.06443     0.24655
     7.51422     0.07138     0.10610     0.06235     0.23983
     7.62822     0.06823     0.10710     0.06220     0.23753
     7.74222     0.06593     0.10950     0.06291     0.23834
     7.85622     0.06393     0.11240     0.06419     0.24052
     7.97022     0.06179     0.11460     0.06497     0.24136
     8.08422     0.05956     0.11670     0.06566     0.24192
     8.19822     0.05692     0.11710     0.06445     0.23847
     8.31222     0.05482     0.11830     0.06403     0.23715
     8.42622     0.05305     0.11980     0.06415     0.23700
     8.54022     0.05132     0.12120     0.06432     0.23684
     8.65422     0.04988     0.12290     0.06460     0.23738
     8.76822     0.04843     0.12450     0.06473     0.23766
     8.88222     0.04705     0.12590     0.06483     0.23778
     8.99522     0.04539     0.12660     0.06414     0.23613
     9.10922     0.04404     0.12740     0.06348     0.23492
     9.22322     0.04274     0.12800     0.06307     0.23381
     9.33722     0.04145     0.12870     0.06268     0.23283
     9.45122     0.04021     0.12980     0.06234     0.23235
     9.56522     0.03909     0.14380     0.07847     0.26136
     9.67922     0.03812     0.14650     0.07808     0.26270
     9.79322     0.03718     0.15540     0.08355     0.27613
     9.90722     0.03615     0.16140     0.08496     0.28251
    10.02122     0.03507     0.16780     0.08620     0.28907
    10.13522     0.03402     0.17790     0.08750     0.29942
    10.24922     0.03319     0.19440     0.08917     0.31676
    10.36322     0.03240     0.18990     0.08953     0.31183
    10.47722     0.03160     0.19080     0.08978     0.31218
    10.59122     0.03077     0.18870     0.08968     0.30915
    10.70522     0.02996     0.18950     0.09086     0.31032
    10.81922     0.02912     0.18950     0.09147     0.31009
    10.93322     0.02841     0.18760     0.09132     0.30733
    11.04722     0.02771     0.18660     0.09114     0.30545
    11.16122     0.02704     0.18640     0.09191     0.30535
    11.27522     0.02637     0.18730     0.09279     0.30646
    11.38922     0.02569     0.18620     0.09316     0.30505
    11.50322     0.02497     0.18420     0.09295     0.30212
    11.61722     0.02439     0.18370     0.09347     0.30156
    11.73122     0.02378     0.18450     0.09415     0.30243
    11.84522     0.02314     0.18330     0.09411     0.30055
    11.95922     0.02255     0.18180     0.09391     0.29826
    12.07322     0.02199     0.18060     0.09426     0.29685
    12.18722     0.02141     0.17990     0.09491     0.29622
    12.30122     0.02084     0.17860     0.09501     0.29445
    12.41522     0.02030     0.17720     0.09481     0.29231
    12.52922     0.01982     0.17630     0.09502     0.29114
    12.64322     0.01934     0.17620     0.09569     0.29123
    12.75722     0.01881     0.17530     0.09578     0.28989
    12.87122     0.01823     0.17340     0.09538     0.28701
    12.98522     0.01766     0.17110     0.09497     0.28373
    13.09922     0.01718     0.17000     0.09538     0.28256
    13.21322     0.01670     0.16840     0.09544     0.28054
    13.32722     0.01620     0.16650     0.09515     0.27785
    13.44122     0.01574     0.16480     0.09505     0.27559
    13.55522     0.01527     0.16350     0.09532     0.27409
    13.66922     0.01479     0.16230     0.09568     0.27277
    13.78222     0.01437     0.16030     0.09554     0.27021
    13.89622     0.01397     0.15800     0.09552     0.26749
    14.01022     0.01356     0.15620     0.09588     0.26564
    14.12422     0.01315     0.15410     0.09597     0.26322
    14.23822     0.01271     0.15160     0.09584     0.26015
    14.35222     0.01230     0.14960     0.09628     0.25818
    14.46622     0.01194     0.14780     0.09698     0.25672
    14.58022     0.01156     0.14670     0.09840     0.25666
    14.69422     0.01130     0.16360     0.12410     0.29900
    14.80822     0.01041     0.13670     0.09544     0.24255
    14.92222     0.00995     0.13020     0.09149     0.23164
    15.03622     0.00959     0.12530     0.08896     0.22385
    15.15022     0.00933     0.12020     0.08575     0.21528
    15.26422     0.00913     0.11660     0.08356     0.20929
    15.37822     0.00897     0.11330     0.08204     0.20431
    15.49222     0.00889     0.11230     0.08216     0.20335
    15.60622     0.00898     0.11520     0.08594     0.21012
    15.72022     0.00877     0.10810     0.08303     0.19990
    15.83422     0.00859     0.10720     0.07857     0.19436
    15.94822     0.00857     0.10650     0.07640     0.19147
    16.06222     0.00811     0.10040     0.07347     0.18198
    16.17622     0.00797     0.09448     0.06993     0.17238
    16.29022     0.00837     0.09074     0.06924     0.16835
    16.40422     0.00856     0.08720     0.06853     0.16429
    16.51822     0.00689     0.07661     0.04447     0.12797
    16.63222     0.00600     0.07082     0.03645     0.11327
    16.74622     0.00549     0.06842     0.03422     0.10813
    16.86022     0.00511     0.06571     0.03405     0.10487
    16.97422     0.00426     0.06378     0.02942     0.09746
    17.08822     0.00379     0.06279     0.02693     0.09351
    17.20222     0.00327     0.06169     0.02469     0.08965
    17.31622     0.00283     0.06075     0.02277     0.08636
    17.43022     0.00249     0.05908     0.02130     0.08287
    17.54422     0.00220     0.05353     0.02004     0.07577
    17.65822     0.00194     0.04981     0.01898     0.07072
    17.77222     0.00173     0.04884     0.01837     0.06894
    17.88622     0.00150     0.04652     0.01709     0.06511
    18.00022     0.00130     0.04543     0.01645     0.06318
    18.11422     0.00115     0.04567     0.01610     0.06292
    18.22822     0.00103     0.04743     0.01605     0.06451
    18.34222     0.00090     0.04989     0.01604     0.06683
    18.45622     0.00080     0.06035     0.01722     0.07837
    18.56922     0.00070     0.05753     0.01606     0.07429
    18.68322     0.00044     0.04380     0.01304     0.05728
    18.79722     0.00029     0.03532     0.01081     0.04642
    18.91122     0.00011     0.02932     0.00929     0.03872
    19.02522     0.00008     0.02659     0.00815     0.03482
    19.13922     0.00005     0.02414     0.00645     0.03064
    19.25322     0.00003     0.01413     0.00490     0.01906
    19.36722     0.00002     0.00974     0.00377     0.01353
    19.48122     0.00002     0.00758     0.00305     0.01065
    19.59522     0.00001     0.00531     0.00226     0.00757
    19.70922     0.00000     0.00249     0.00106     0.00355
    19.82322     0.00000     0.00134     0.00058     0.00192
    19.93722     0.00000     0.00059     0.00026     0.00085
    20.05122     0.00000     0.00019     0.00008     0.00028
    20.16522     0.00000     0.00002     0.00001     0.00003
    20.27922     0.00000     0.00000     0.00000     0.00000
    20.39322     0.00000     0.00000     0.00000     0.00000
    20.50722     0.00000     0.00000     0.00000     0.00000
    20.62122     0.00000     0.00000     0.00000     0.00000
    20.73522     0.00000     0.00000     0.00000     0.00000
    20.84922     0.00000     0.00000     0.00000     0.00000
    20.96322     0.00000     0.00000     0.00000     0.00000
    21.07722     0.00000     0.00000     0.00000     0.00000
    21.19122     0.00000     0.00000     0.00000     0.00000
    21.30522     0.00000     0.00000     0.00000     0.00000
    21.41922     0.00000     0.00000     0.00000     0.00000
    21.53322     0.00000     0.00000     0.00000     0.00000
    21.64722     0.00000     0.00000     0.00000     0.00000
    21.76122     0.00000     0.00000     0.00000     0.00000
    21.87522     0.00000     0.00000     0.00000     0.00000
    21.98922     0.00000     0.00000     0.00000     0.00000
    22.10322     0.00000     0.00000     0.00000     0.00000
    22.21722     0.00000     0.00000     0.00000     0.00000
