 #energy          xx(cm^-1)       yy(cm^-1)       zz(cm^-1)       xy(cm^-1)       yz(cm^-1)       zx(cm^-1)
  0.00000000E+00  0.00000000E+00  0.00000000E+00  0.00000000E+00  0.00000000E+00  0.00000000E+00  0.00000000E+00
  0.35200000E-01  0.21366202E+03  0.21366202E+03  0.21366202E+03  0.26890686E+01  0.26890686E+01  0.26890686E+01
  0.70500000E-01  0.92541300E+03  0.92541300E+03  0.92541300E+03  0.15968967E+02  0.15968967E+02  0.15968967E+02
  0.10570000E+00  0.23314582E+04  0.23314582E+04  0.23314582E+04  0.39431300E+02  0.39431300E+02  0.39431300E+02
  0.14090000E+00  0.47235707E+04  0.47235707E+04  0.47235707E+04  0.83025144E+02  0.83025144E+02  0.83025144E+02
  0.17620000E+00  0.84267007E+04  0.84267007E+04  0.84267007E+04  0.14231443E+03  0.14231443E+03  0.14231443E+03
  0.21140000E+00  0.13690758E+05  0.13690758E+05  0.13690758E+05  0.24657861E+03  0.24657861E+03  0.24657861E+03
  0.24660000E+00  0.20612241E+05  0.20612241E+05  0.20612241E+05  0.36045828E+03  0.36045828E+03  0.36045828E+03
  0.28190000E+00  0.29045005E+05  0.29045005E+05  0.29045005E+05  0.51928238E+03  0.51928238E+03  0.51928238E+03
  0.31710000E+00  0.38532411E+05  0.38532411E+05  0.38532411E+05  0.69004742E+03  0.69004742E+03  0.69004742E+03
  0.35230000E+00  0.48415271E+05  0.48415271E+05  0.48415271E+05  0.87166251E+03  0.87166251E+03  0.87166251E+03
  0.38760000E+00  0.57968002E+05  0.57968002E+05  0.57968002E+05  0.10381732E+04  0.10381732E+04  0.10381732E+04
  0.42280000E+00  0.66602977E+05  0.66602977E+05  0.66602977E+05  0.11844023E+04  0.11844023E+04  0.11844023E+04
  0.45800000E+00  0.74251419E+05  0.74251419E+05  0.74251419E+05  0.13129677E+04  0.13129677E+04  0.13129677E+04
  0.49330000E+00  0.81539845E+05  0.81539845E+05  0.81539845E+05  0.14147450E+04  0.14147450E+04  0.14147450E+04
  0.52850000E+00  0.89720058E+05  0.89720058E+05  0.89720058E+05  0.14969575E+04  0.14969575E+04  0.14969575E+04
  0.56370000E+00  0.10044334E+06  0.10044334E+06  0.10044334E+06  0.15544660E+04  0.15544660E+04  0.15544660E+04
  0.59900000E+00  0.11520603E+06  0.11520603E+06  0.11520603E+06  0.16738168E+04  0.16738168E+04  0.16738168E+04
  0.63420000E+00  0.13482823E+06  0.13482823E+06  0.13482823E+06  0.18648129E+04  0.18648129E+04  0.18648129E+04
  0.66940000E+00  0.15930433E+06  0.15930433E+06  0.15930433E+06  0.21356474E+04  0.21356474E+04  0.21356474E+04
  0.70470000E+00  0.18770555E+06  0.18770555E+06  0.18770555E+06  0.25228897E+04  0.25228897E+04  0.25228897E+04
  0.73990000E+00  0.21819412E+06  0.21819412E+06  0.21819412E+06  0.29508249E+04  0.29508249E+04  0.29508249E+04
  0.77510000E+00  0.24837583E+06  0.24837583E+06  0.24837583E+06  0.33208600E+04  0.33208600E+04  0.33208600E+04
  0.81040000E+00  0.27550906E+06  0.27550906E+06  0.27550906E+06  0.37645473E+04  0.37645473E+04  0.37645473E+04
  0.84560000E+00  0.29672762E+06  0.29672762E+06  0.29672762E+06  0.40794044E+04  0.40794044E+04  0.40794044E+04
  0.88080000E+00  0.30961832E+06  0.30961832E+06  0.30961832E+06  0.43443607E+04  0.43443607E+04  0.43443607E+04
  0.91600000E+00  0.31251262E+06  0.31251262E+06  0.31251262E+06  0.44377321E+04  0.44377321E+04  0.44377321E+04
  0.95130000E+00  0.30501843E+06  0.30501843E+06  0.30501843E+06  0.44071284E+04  0.44071284E+04  0.44071284E+04
  0.98650000E+00  0.28839012E+06  0.28839012E+06  0.28839012E+06  0.42433412E+04  0.42433412E+04  0.42433412E+04
  0.10217000E+01  0.26606266E+06  0.26606266E+06  0.26606266E+06  0.39299054E+04  0.39299054E+04  0.39299054E+04
  0.10570000E+01  0.24310238E+06  0.24310238E+06  0.24310238E+06  0.33910574E+04  0.33910574E+04  0.33910574E+04
  0.10922000E+01  0.22451069E+06  0.22451069E+06  0.22451069E+06  0.29705609E+04  0.29705609E+04  0.29705609E+04
  0.11274000E+01  0.21349808E+06  0.21349808E+06  0.21349808E+06  0.27989635E+04  0.27989635E+04  0.27989635E+04
  0.11627000E+01  0.21091412E+06  0.21091412E+06  0.21091412E+06  0.28033522E+04  0.28033522E+04  0.28033522E+04
  0.11979000E+01  0.21601671E+06  0.21601671E+06  0.21601671E+06  0.32422736E+04  0.32422736E+04  0.32422736E+04
  0.12331000E+01  0.22753385E+06  0.22753385E+06  0.22753385E+06  0.37597865E+04  0.37597865E+04  0.37597865E+04
  0.12684000E+01  0.24412937E+06  0.24412937E+06  0.24412937E+06  0.42637934E+04  0.42637934E+04  0.42637934E+04
  0.13036000E+01  0.26448537E+06  0.26448537E+06  0.26448537E+06  0.47967959E+04  0.47967959E+04  0.47967959E+04
  0.13388000E+01  0.28740698E+06  0.28740698E+06  0.28740698E+06  0.51791541E+04  0.51791541E+04  0.51791541E+04
  0.13741000E+01  0.31174601E+06  0.31174601E+06  0.31174601E+06  0.53960967E+04  0.53960967E+04  0.53960967E+04
  0.14093000E+01  0.33635424E+06  0.33635424E+06  0.33635424E+06  0.56460708E+04  0.56460708E+04  0.56460708E+04
  0.14445000E+01  0.36026069E+06  0.36026069E+06  0.36026069E+06  0.55561793E+04  0.55561793E+04  0.55561793E+04
  0.14798000E+01  0.38266998E+06  0.38266998E+06  0.38266998E+06  0.53681594E+04  0.53681594E+04  0.53681594E+04
  0.15150000E+01  0.40289716E+06  0.40289716E+06  0.40289716E+06  0.49526553E+04  0.49526553E+04  0.49526553E+04
  0.15502000E+01  0.42049948E+06  0.42049948E+06  0.42049948E+06  0.48690144E+04  0.48690144E+04  0.48690144E+04
  0.15855000E+01  0.43514433E+06  0.43514433E+06  0.43514433E+06  0.47754421E+04  0.47754421E+04  0.47754421E+04
  0.16207000E+01  0.44647792E+06  0.44647792E+06  0.44647792E+06  0.48008028E+04  0.48008028E+04  0.48008028E+04
  0.16559000E+01  0.45426567E+06  0.45426567E+06  0.45426567E+06  0.51085774E+04  0.51085774E+04  0.51085774E+04
  0.16912000E+01  0.45835376E+06  0.45835376E+06  0.45835376E+06  0.53408207E+04  0.53408207E+04  0.53408207E+04
  0.17264000E+01  0.45870404E+06  0.45870404E+06  0.45870404E+06  0.56554170E+04  0.56554170E+04  0.56554170E+04
  0.17616000E+01  0.45572551E+06  0.45572551E+06  0.45572551E+06  0.61850257E+04  0.61850257E+04  0.61850257E+04
  0.17969000E+01  0.45037086E+06  0.45037086E+06  0.45037086E+06  0.64217894E+04  0.64217894E+04  0.64217894E+04
  0.18321000E+01  0.44415668E+06  0.44415668E+06  0.44415668E+06  0.65930623E+04  0.65930623E+04  0.65930623E+04
  0.18673000E+01  0.43918542E+06  0.43918542E+06  0.43918542E+06  0.67468300E+04  0.67468300E+04  0.67468300E+04
  0.19026000E+01  0.43767721E+06  0.43767721E+06  0.43767721E+06  0.67698135E+04  0.67698135E+04  0.67698135E+04
  0.19378000E+01  0.44135736E+06  0.44135736E+06  0.44135736E+06  0.62186108E+04  0.62186108E+04  0.62186108E+04
  0.19730000E+01  0.45110598E+06  0.45110598E+06  0.45110598E+06  0.56560815E+04  0.56560815E+04  0.56560815E+04
  0.20083000E+01  0.46666357E+06  0.46666357E+06  0.46666357E+06  0.45740065E+04  0.45740065E+04  0.45740065E+04
  0.20435000E+01  0.48666827E+06  0.48666827E+06  0.48666827E+06  0.30142876E+04  0.30142876E+04  0.30142876E+04
  0.20787000E+01  0.50910205E+06  0.50910205E+06  0.50910205E+06  0.95881000E+03  0.95881000E+03  0.95881000E+03
  0.21140000E+01  0.53169237E+06  0.53169237E+06  0.53169237E+06  0.21426368E+04  0.21426368E+04  0.21426368E+04
  0.21492000E+01  0.55233439E+06  0.55233439E+06  0.55233439E+06  0.33092352E+04  0.33092352E+04  0.33092352E+04
  0.21844000E+01  0.56970532E+06  0.56970532E+06  0.56970532E+06  0.47095787E+04  0.47095787E+04  0.47095787E+04
  0.22197000E+01  0.58354355E+06  0.58354355E+06  0.58354355E+06  0.57449759E+04  0.57449759E+04  0.57449759E+04
  0.22549000E+01  0.59469117E+06  0.59469117E+06  0.59469117E+06  0.67800102E+04  0.67800102E+04  0.67800102E+04
  0.22901000E+01  0.60500237E+06  0.60500237E+06  0.60500237E+06  0.76570344E+04  0.76570344E+04  0.76570344E+04
  0.23254000E+01  0.61669984E+06  0.61669984E+06  0.61669984E+06  0.83105510E+04  0.83105510E+04  0.83105510E+04
  0.23606000E+01  0.63150708E+06  0.63150708E+06  0.63150708E+06  0.87908905E+04  0.87908905E+04  0.87908905E+04
  0.23958000E+01  0.65017883E+06  0.65017883E+06  0.65017883E+06  0.89743328E+04  0.89743328E+04  0.89743328E+04
  0.24311000E+01  0.67216375E+06  0.67216375E+06  0.67216375E+06  0.89423777E+04  0.89423777E+04  0.89423777E+04
  0.24663000E+01  0.69569502E+06  0.69569502E+06  0.69569502E+06  0.86667470E+04  0.86667470E+04  0.86667470E+04
  0.25015000E+01  0.71842282E+06  0.71842282E+06  0.71842282E+06  0.84175886E+04  0.84175886E+04  0.84175886E+04
  0.25368000E+01  0.73791964E+06  0.73791964E+06  0.73791964E+06  0.77603904E+04  0.77603904E+04  0.77603904E+04
  0.25720000E+01  0.75215957E+06  0.75215957E+06  0.75215957E+06  0.74297739E+04  0.74297739E+04  0.74297739E+04
  0.26072000E+01  0.76015999E+06  0.76015999E+06  0.76015999E+06  0.66610857E+04  0.66610857E+04  0.66610857E+04
  0.26424000E+01  0.76217504E+06  0.76217504E+06  0.76217504E+06  0.61028661E+04  0.61028661E+04  0.61028661E+04
  0.26777000E+01  0.75979856E+06  0.75979856E+06  0.75979856E+06  0.55858203E+04  0.55858203E+04  0.55858203E+04
  0.27129000E+01  0.75556585E+06  0.75556585E+06  0.75556585E+06  0.56592493E+04  0.56592493E+04  0.56592493E+04
  0.27481000E+01  0.75245052E+06  0.75245052E+06  0.75245052E+06  0.50619243E+04  0.50619243E+04  0.50619243E+04
  0.27834000E+01  0.75292404E+06  0.75292404E+06  0.75292404E+06  0.51269460E+04  0.51269460E+04  0.51269460E+04
  0.28186000E+01  0.75814597E+06  0.75814597E+06  0.75814597E+06  0.47826786E+04  0.47826786E+04  0.47826786E+04
  0.28538000E+01  0.76784470E+06  0.76784470E+06  0.76784470E+06  0.41727046E+04  0.41727046E+04  0.41727046E+04
  0.28891000E+01  0.78048761E+06  0.78048761E+06  0.78048761E+06  0.35863427E+04  0.35863427E+04  0.35863427E+04
  0.29243000E+01  0.79377335E+06  0.79377335E+06  0.79377335E+06  0.23300846E+04  0.23300846E+04  0.23300846E+04
  0.29595000E+01  0.80546708E+06  0.80546708E+06  0.80546708E+06  0.13650831E+04  0.13650831E+04  0.13650831E+04
  0.29948000E+01  0.81391555E+06  0.81391555E+06  0.81391555E+06  0.00000000E+00  0.00000000E+00  0.00000000E+00
  0.30300000E+01  0.81837931E+06  0.81837931E+06  0.81837931E+06  0.00000000E+00  0.00000000E+00  0.00000000E+00
  0.30652000E+01  0.81935416E+06  0.81935416E+06  0.81935416E+06  0.10673478E+04  0.10673478E+04  0.10673478E+04
  0.31005000E+01  0.81835532E+06  0.81835532E+06  0.81835532E+06  0.10796397E+04  0.10796397E+04  0.10796397E+04
  0.31357000E+01  0.81746527E+06  0.81746527E+06  0.81746527E+06  0.20454565E+04  0.20454565E+04  0.20454565E+04
  0.31709000E+01  0.81893795E+06  0.81893795E+06  0.81893795E+06  0.20684179E+04  0.20684179E+04  0.20684179E+04
  0.32062000E+01  0.82451491E+06  0.82451491E+06  0.82451491E+06  0.29115971E+04  0.29115971E+04  0.29115971E+04
  0.32414000E+01  0.83498838E+06  0.83498838E+06  0.83498838E+06  0.29435628E+04  0.29435628E+04  0.29435628E+04
  0.32766000E+01  0.85025782E+06  0.85025782E+06  0.85025782E+06  0.41499737E+04  0.41499737E+04  0.41499737E+04
  0.33119000E+01  0.86946506E+06  0.86946506E+06  0.86946506E+06  0.41946829E+04  0.41946829E+04  0.41946829E+04
  0.33471000E+01  0.89130970E+06  0.89130970E+06  0.89130970E+06  0.53639198E+04  0.53639198E+04  0.53639198E+04
  0.33823000E+01  0.91465288E+06  0.91465288E+06  0.91465288E+06  0.54203298E+04  0.54203298E+04  0.54203298E+04
  0.34176000E+01  0.93881406E+06  0.93881406E+06  0.93881406E+06  0.60489476E+04  0.60489476E+04  0.60489476E+04
  0.34528000E+01  0.96358453E+06  0.96358453E+06  0.96358453E+06  0.61112495E+04  0.61112495E+04  0.61112495E+04
  0.34880000E+01  0.98926819E+06  0.98926819E+06  0.98926819E+06  0.67933682E+04  0.67933682E+04  0.67933682E+04
  0.35233000E+01  0.10161750E+07  0.10161750E+07  0.10161750E+07  0.64239481E+04  0.64239481E+04  0.64239481E+04
  0.35585000E+01  0.10440618E+07  0.10440618E+07  0.10440618E+07  0.72134088E+04  0.72134088E+04  0.72134088E+04
  0.35937000E+01  0.10719432E+07  0.10719432E+07  0.10719432E+07  0.69313667E+04  0.69313667E+04  0.69313667E+04
  0.36290000E+01  0.10979806E+07  0.10979806E+07  0.10979806E+07  0.69994517E+04  0.69994517E+04  0.69994517E+04
  0.36642000E+01  0.11197225E+07  0.11197225E+07  0.11197225E+07  0.67493553E+04  0.67493553E+04  0.67493553E+04
  0.36994000E+01  0.11348529E+07  0.11348529E+07  0.11348529E+07  0.68141927E+04  0.68141927E+04  0.68141927E+04
  0.37347000E+01  0.11417940E+07  0.11417940E+07  0.11417940E+07  0.55089111E+04  0.55089111E+04  0.55089111E+04
  0.37699000E+01  0.11401812E+07  0.11401812E+07  0.11401812E+07  0.55608333E+04  0.55608333E+04  0.55608333E+04
  0.38051000E+01  0.11313635E+07  0.11313635E+07  0.11313635E+07  0.42372345E+04  0.42372345E+04  0.42372345E+04
  0.38404000E+01  0.11181366E+07  0.11181366E+07  0.11181366E+07  0.27523588E+04  0.27523588E+04  0.27523588E+04
  0.38756000E+01  0.11039781E+07  0.11039781E+07  0.11039781E+07  0.27775861E+04  0.27775861E+04  0.27775861E+04
  0.39108000E+01  0.10922017E+07  0.10922017E+07  0.10922017E+07  0.18038746E+04  0.18038746E+04  0.18038746E+04
  0.39461000E+01  0.10848340E+07  0.10848340E+07  0.10848340E+07  0.31442556E+04  0.31442556E+04  0.31442556E+04
  0.39813000E+01  0.10821237E+07  0.10821237E+07  0.10821237E+07  0.31723030E+04  0.31723030E+04  0.31723030E+04
  0.40165000E+01  0.10829372E+07  0.10829372E+07  0.10829372E+07  0.42328423E+04  0.42328423E+04  0.42328423E+04
  0.40518000E+01  0.10854535E+07  0.10854535E+07  0.10854535E+07  0.42700436E+04  0.42700436E+04  0.42700436E+04
  0.40870000E+01  0.10880090E+07  0.10880090E+07  0.10880090E+07  0.43071396E+04  0.43071396E+04  0.43071396E+04
  0.41222000E+01  0.10899228E+07  0.10899228E+07  0.10899228E+07  0.43442356E+04  0.43442356E+04  0.43442356E+04
  0.41575000E+01  0.10917146E+07  0.10917146E+07  0.10917146E+07  0.52656765E+04  0.52656765E+04  0.52656765E+04
  0.41927000E+01  0.10948078E+07  0.10948078E+07  0.10948078E+07  0.53102591E+04  0.53102591E+04  0.53102591E+04
  0.42279000E+01  0.11010715E+07  0.11010715E+07  0.11010715E+07  0.61346993E+04  0.61346993E+04  0.61346993E+04
  0.42632000E+01  0.11119977E+07  0.11119977E+07  0.11119977E+07  0.61859198E+04  0.61859198E+04  0.61859198E+04
  0.42984000E+01  0.11280651E+07  0.11280651E+07  0.11280651E+07  0.75458998E+04  0.75458998E+04  0.75458998E+04
  0.43336000E+01  0.11486819E+07  0.11486819E+07  0.11486819E+07  0.76076939E+04  0.76076939E+04  0.76076939E+04
  0.43688000E+01  0.11722663E+07  0.11722663E+07  0.11722663E+07  0.83328217E+04  0.83328217E+04  0.83328217E+04
  0.44041000E+01  0.11966730E+07  0.11966730E+07  0.11966730E+07  0.84001511E+04  0.84001511E+04  0.84001511E+04
  0.44393000E+01  0.12195308E+07  0.12195308E+07  0.12195308E+07  0.91795967E+04  0.91795967E+04  0.91795967E+04
  0.44745000E+01  0.12388055E+07  0.12388055E+07  0.12388055E+07  0.92523833E+04  0.92523833E+04  0.92523833E+04
  0.45098000E+01  0.12530700E+07  0.12530700E+07  0.12530700E+07  0.87834667E+04  0.87834667E+04  0.87834667E+04
  0.45450000E+01  0.12617199E+07  0.12617199E+07  0.12617199E+07  0.88520237E+04  0.88520237E+04  0.88520237E+04
  0.45802000E+01  0.12652812E+07  0.12652812E+07  0.12652812E+07  0.89205806E+04  0.89205806E+04  0.89205806E+04
  0.46155000E+01  0.12654095E+07  0.12654095E+07  0.12654095E+07  0.84153301E+04  0.84153301E+04  0.84153301E+04
  0.46507000E+01  0.12645843E+07  0.12645843E+07  0.12645843E+07  0.82314609E+04  0.82314609E+04  0.82314609E+04
  0.46859000E+01  0.12658496E+07  0.12658496E+07  0.12658496E+07  0.82937628E+04  0.82937628E+04  0.82937628E+04
  0.47212000E+01  0.12721364E+07  0.12721364E+07  0.12721364E+07  0.75659939E+04  0.75659939E+04  0.75659939E+04
  0.47564000E+01  0.12856058E+07  0.12856058E+07  0.12856058E+07  0.83499251E+04  0.83499251E+04  0.83499251E+04
  0.47916000E+01  0.13075112E+07  0.13075112E+07  0.13075112E+07  0.90856951E+04  0.90856951E+04  0.90856951E+04
  0.48269000E+01  0.13380751E+07  0.13380751E+07  0.13380751E+07  0.10413940E+05  0.10413940E+05  0.10413940E+05
  0.48621000E+01  0.13765867E+07  0.13765867E+07  0.13765867E+07  0.11049734E+05  0.11049734E+05  0.11049734E+05
  0.48973000E+01  0.14218848E+07  0.14218848E+07  0.14218848E+07  0.12867373E+05  0.12867373E+05  0.12867373E+05
  0.49326000E+01  0.14725560E+07  0.14725560E+07  0.14725560E+07  0.14009393E+05  0.14009393E+05  0.14009393E+05
  0.49678000E+01  0.15271106E+07  0.15271106E+07  0.15271106E+07  0.15326041E+05  0.15326041E+05  0.15326041E+05
  0.50030000E+01  0.15843247E+07  0.15843247E+07  0.15843247E+07  0.16050577E+05  0.16050577E+05  0.16050577E+05
  0.50383000E+01  0.16433666E+07  0.16433666E+07  0.16433666E+07  0.17397032E+05  0.17397032E+05  0.17397032E+05
  0.50735000E+01  0.17036976E+07  0.17036976E+07  0.17036976E+07  0.18492748E+05  0.18492748E+05  0.18492748E+05
  0.51087000E+01  0.17652290E+07  0.17652290E+07  0.17652290E+07  0.19024834E+05  0.19024834E+05  0.19024834E+05
  0.51440000E+01  0.18280594E+07  0.18280594E+07  0.18280594E+07  0.20234365E+05  0.20234365E+05  0.20234365E+05
  0.51792000E+01  0.18920332E+07  0.18920332E+07  0.18920332E+07  0.20718513E+05  0.20718513E+05  0.20718513E+05
  0.52144000E+01  0.19566585E+07  0.19566585E+07  0.19566585E+07  0.21390706E+05  0.21390706E+05  0.21390706E+05
  0.52497000E+01  0.20208199E+07  0.20208199E+07  0.20208199E+07  0.21375776E+05  0.21375776E+05  0.21375776E+05
  0.52849000E+01  0.20826388E+07  0.20826388E+07  0.20826388E+07  0.21436412E+05  0.21436412E+05  0.21436412E+05
  0.53201000E+01  0.21399178E+07  0.21399178E+07  0.21399178E+07  0.21610592E+05  0.21610592E+05  0.21610592E+05
  0.53554000E+01  0.21904246E+07  0.21904246E+07  0.21904246E+07  0.21205204E+05  0.21205204E+05  0.21205204E+05
  0.53906000E+01  0.22321503E+07  0.22321503E+07  0.22321503E+07  0.20756757E+05  0.20756757E+05  0.20756757E+05
  0.54258000E+01  0.22639044E+07  0.22639044E+07  0.22639044E+07  0.20489899E+05  0.20489899E+05  0.20489899E+05
  0.54611000E+01  0.22853487E+07  0.22853487E+07  0.22853487E+07  0.19412848E+05  0.19412848E+05  0.19412848E+05
  0.54963000E+01  0.22969116E+07  0.22969116E+07  0.22969116E+07  0.18069176E+05  0.18069176E+05  0.18069176E+05
  0.55315000E+01  0.22998212E+07  0.22998212E+07  0.22998212E+07  0.17422254E+05  0.17422254E+05  0.17422254E+05
  0.55668000E+01  0.22958104E+07  0.22958104E+07  0.22958104E+07  0.15958578E+05  0.15958578E+05  0.15958578E+05
  0.56020000E+01  0.22867104E+07  0.22867104E+07  0.22867104E+07  0.15253333E+05  0.15253333E+05  0.15253333E+05
  0.56372000E+01  0.22745057E+07  0.22745057E+07  0.22745057E+07  0.14031572E+05  0.14031572E+05  0.14031572E+05
  0.56725000E+01  0.22610815E+07  0.22610815E+07  0.22610815E+07  0.13245822E+05  0.13245822E+05  0.13245822E+05
  0.57077000E+01  0.22480741E+07  0.22480741E+07  0.22480741E+07  0.11802398E+05  0.11802398E+05  0.11802398E+05
  0.57429000E+01  0.22370285E+07  0.22370285E+07  0.22370285E+07  0.11185102E+05  0.11185102E+05  0.11185102E+05
  0.57782000E+01  0.22292985E+07  0.22292985E+07  0.22292985E+07  0.10535253E+05  0.10535253E+05  0.10535253E+05
  0.58134000E+01  0.22257742E+07  0.22257742E+07  0.22257742E+07  0.10599432E+05  0.10599432E+05  0.10599432E+05
  0.58486000E+01  0.22268994E+07  0.22268994E+07  0.22268994E+07  0.99240666E+04  0.99240666E+04  0.99240666E+04
  0.58839000E+01  0.22324175E+07  0.22324175E+07  0.22324175E+07  0.11348601E+05  0.11348601E+05  0.11348601E+05
  0.59191000E+01  0.22411037E+07  0.22411037E+07  0.22411037E+07  0.12726398E+05  0.12726398E+05  0.12726398E+05
  0.59543000E+01  0.22511434E+07  0.22511434E+07  0.22511434E+07  0.12802080E+05  0.12802080E+05  0.12802080E+05
  0.59896000E+01  0.22604014E+07  0.22604014E+07  0.22604014E+07  0.13339644E+05  0.13339644E+05  0.13339644E+05
  0.60248000E+01  0.22667906E+07  0.22667906E+07  0.22667906E+07  0.13418039E+05  0.13418039E+05  0.13418039E+05
  0.60600000E+01  0.22689725E+07  0.22689725E+07  0.22689725E+07  0.14008225E+05  0.14008225E+05  0.14008225E+05
  0.60953000E+01  0.22665414E+07  0.22665414E+07  0.22665414E+07  0.12981576E+05  0.12981576E+05  0.12981576E+05
  0.61305000E+01  0.22598580E+07  0.22598580E+07  0.22598580E+07  0.13056544E+05  0.13056544E+05  0.13056544E+05
  0.61657000E+01  0.22499715E+07  0.22499715E+07  0.22499715E+07  0.12008564E+05  0.12008564E+05  0.12008564E+05
