  #energy          xx             yy              zz              xy              yz              zx
  0.00000000E+00  0.00000000E+00  0.00000000E+00  0.00000000E+00  0.00000000E+00  0.00000000E+00  0.00000000E+00
  0.35200000E-01  0.26523245E-03  0.26523245E-03  0.26523245E-03  0.51626226E+01  0.51626226E+01  0.51626226E+01
  0.70500000E-01  0.56640458E-03  0.56640458E-03  0.56640458E-03  0.14749263E+02  0.14749263E+02  0.14749263E+02
  0.10570000E+00  0.93398157E-03  0.93398157E-03  0.93398157E-03  0.23353573E+02  0.23353573E+02  0.23353573E+02
  0.14090000E+00  0.13883453E-02  0.13883453E-02  0.13883453E-02  0.35195777E+02  0.35195777E+02  0.35195777E+02
  0.17620000E+00  0.19377231E-02  0.19377231E-02  0.19377231E-02  0.47210300E+02  0.47210300E+02  0.47210300E+02
  0.21140000E+00  0.25782895E-02  0.25782895E-02  0.25782895E-02  0.64908722E+02  0.64908722E+02  0.64908722E+02
  0.24660000E+00  0.32958462E-02  0.32958462E-02  0.32958462E-02  0.79491256E+02  0.79491256E+02  0.79491256E+02
  0.28190000E+00  0.40672319E-02  0.40672319E-02  0.40672319E-02  0.97618118E+02  0.97618118E+02  0.97618118E+02
  0.31710000E+00  0.48603025E-02  0.48603025E-02  0.48603025E-02  0.11498810E+03  0.11498810E+03  0.11498810E+03
  0.35230000E+00  0.56325048E-02  0.56325048E-02  0.56325048E-02  0.13372336E+03  0.13372336E+03  0.13372336E+03
  0.38760000E+00  0.63307507E-02  0.63307507E-02  0.63307507E-02  0.15617605E+03  0.15617605E+03  0.15617605E+03
  0.42280000E+00  0.68986645E-02  0.68986645E-02  0.68986645E-02  0.17618793E+03  0.17618793E+03  0.17618793E+03
  0.45800000E+00  0.72974504E-02  0.72974504E-02  0.72974504E-02  0.20000000E+03  0.20000000E+03  0.20000000E+03
  0.49330000E+00  0.75371141E-02  0.75371141E-02  0.75371141E-02  0.21453287E+03  0.21453287E+03  0.21453287E+03
  0.52850000E+00  0.76933537E-02  0.76933537E-02  0.76933537E-02  0.22371365E+03  0.22371365E+03  0.22371365E+03
  0.56370000E+00  0.78832714E-02  0.78832714E-02  0.78832714E-02  0.22620905E+03  0.22620905E+03  0.22620905E+03
  0.59900000E+00  0.82137511E-02  0.82137511E-02  0.82137511E-02  0.21676301E+03  0.21676301E+03  0.21676301E+03
  0.63420000E+00  0.87470827E-02  0.87470827E-02  0.87470827E-02  0.21220159E+03  0.21220159E+03  0.21220159E+03
  0.66940000E+00  0.95035991E-02  0.95035991E-02  0.95035991E-02  0.21008403E+03  0.21008403E+03  0.21008403E+03
  0.70470000E+00  0.10483640E-01  0.10483640E-01  0.10483640E-01  0.21138211E+03  0.21138211E+03  0.21138211E+03
  0.73990000E+00  0.11688173E-01  0.11688173E-01  0.11688173E-01  0.21727884E+03  0.21727884E+03  0.21727884E+03
  0.77510000E+00  0.13130637E-01  0.13130637E-01  0.13130637E-01  0.22477784E+03  0.22477784E+03  0.22477784E+03
  0.81040000E+00  0.14841204E-01  0.14841204E-01  0.14841204E-01  0.23243243E+03  0.23243243E+03  0.23243243E+03
  0.84560000E+00  0.16864112E-01  0.16864112E-01  0.16864112E-01  0.24615385E+03  0.24615385E+03  0.24615385E+03
  0.88080000E+00  0.19241235E-01  0.19241235E-01  0.19241235E-01  0.25787966E+03  0.25787966E+03  0.25787966E+03
  0.91600000E+00  0.21962982E-01  0.21962982E-01  0.21962982E-01  0.28063611E+03  0.28063611E+03  0.28063611E+03
  0.95130000E+00  0.24854201E-01  0.24854201E-01  0.24854201E-01  0.31088083E+03  0.31088083E+03  0.31088083E+03
  0.98650000E+00  0.27398185E-01  0.27398185E-01  0.27398185E-01  0.35849057E+03  0.35849057E+03  0.35849057E+03
  0.10217000E+01  0.28709417E-01  0.28709417E-01  0.28709417E-01  0.44164038E+03  0.44164038E+03  0.44164038E+03
  0.10570000E+01  0.28090409E-01  0.28090409E-01  0.28090409E-01  0.64705882E+03  0.64705882E+03  0.64705882E+03
  0.10922000E+01  0.25860350E-01  0.25860350E-01  0.25860350E-01  0.84615385E+03  0.84615385E+03  0.84615385E+03
  0.11274000E+01  0.23136025E-01  0.23136025E-01  0.23136025E-01  0.83333333E+03  0.83333333E+03  0.83333333E+03
  0.11627000E+01  0.20818695E-01  0.20818695E-01  0.20818695E-01  0.68292683E+03  0.68292683E+03  0.68292683E+03
  0.11979000E+01  0.19217454E-01  0.19217454E-01  0.19217454E-01  0.57046980E+03  0.57046980E+03  0.57046980E+03
  0.12331000E+01  0.18287670E-01  0.18287670E-01  0.18287670E-01  0.49504950E+03  0.49504950E+03  0.49504950E+03
  0.12684000E+01  0.17886425E-01  0.17886425E-01  0.17886425E-01  0.45454545E+03  0.45454545E+03  0.45454545E+03
  0.13036000E+01  0.17880232E-01  0.17880232E-01  0.17880232E-01  0.44000000E+03  0.44000000E+03  0.44000000E+03
  0.13388000E+01  0.18168869E-01  0.18168869E-01  0.18168869E-01  0.42857143E+03  0.42857143E+03  0.42857143E+03
  0.13741000E+01  0.18681293E-01  0.18681293E-01  0.18681293E-01  0.42986425E+03  0.42986425E+03  0.42986425E+03
  0.14093000E+01  0.19366963E-01  0.19366963E-01  0.19366963E-01  0.41463415E+03  0.41463415E+03  0.41463415E+03
  0.14445000E+01  0.20189069E-01  0.20189069E-01  0.20189069E-01  0.44164038E+03  0.44164038E+03  0.44164038E+03
  0.14798000E+01  0.21120582E-01  0.21120582E-01  0.21120582E-01  0.49180328E+03  0.49180328E+03  0.49180328E+03
  0.15150000E+01  0.22141149E-01  0.22141149E-01  0.22141149E-01  0.60975610E+03  0.60975610E+03  0.60975610E+03
  0.15502000E+01  0.23235068E-01  0.23235068E-01  0.23235068E-01  0.67114094E+03  0.67114094E+03  0.67114094E+03
  0.15855000E+01  0.24388425E-01  0.24388425E-01  0.24388425E-01  0.73529412E+03  0.73529412E+03  0.73529412E+03
  0.16207000E+01  0.25583801E-01  0.25583801E-01  0.25583801E-01  0.75342466E+03  0.75342466E+03  0.75342466E+03
  0.16559000E+01  0.26793786E-01  0.26793786E-01  0.26793786E-01  0.70063694E+03  0.70063694E+03  0.70063694E+03
  0.16912000E+01  0.27971020E-01  0.27971020E-01  0.27971020E-01  0.66666667E+03  0.66666667E+03  0.66666667E+03
  0.17264000E+01  0.29038697E-01  0.29038697E-01  0.29038697E-01  0.62176166E+03  0.62176166E+03  0.62176166E+03
  0.17616000E+01  0.29887974E-01  0.29887974E-01  0.29887974E-01  0.53333333E+03  0.53333333E+03  0.53333333E+03
  0.17969000E+01  0.30394273E-01  0.30394273E-01  0.30394273E-01  0.49773756E+03  0.49773756E+03  0.49773756E+03
  0.18321000E+01  0.30461017E-01  0.30461017E-01  0.30461017E-01  0.44554455E+03  0.44554455E+03  0.44554455E+03
  0.18673000E+01  0.30081332E-01  0.30081332E-01  0.30081332E-01  0.33333333E+03  0.33333333E+03  0.33333333E+03
  0.19026000E+01  0.29372220E-01  0.29372220E-01  0.29372220E-01  0.25000000E+03  0.25000000E+03  0.25000000E+03
  0.19378000E+01  0.28541366E-01  0.28541366E-01  0.28541366E-01  0.99009901E+02  0.99009901E+02  0.99009901E+02
  0.19730000E+01  0.27804181E-01  0.27804181E-01  0.27804181E-01  0.00000000E+00  0.00000000E+00  0.00000000E+00
  0.20083000E+01  0.27312181E-01  0.27312181E-01  0.27312181E-01 -0.38461538E+03 -0.38461538E+03 -0.38461538E+03
  0.20435000E+01  0.27132020E-01  0.27132020E-01  0.27132020E-01 -0.20000000E+04 -0.20000000E+04 -0.20000000E+04
  0.20787000E+01  0.27260973E-01  0.27260973E-01  0.27260973E-01  0.50000000E+04  0.50000000E+04  0.50000000E+04
  0.21140000E+01  0.27651238E-01  0.27651238E-01  0.27651238E-01  0.16000000E+04  0.16000000E+04  0.16000000E+04
  0.21492000E+01  0.28226421E-01  0.28226421E-01  0.28226421E-01  0.12068966E+04  0.12068966E+04  0.12068966E+04
  0.21844000E+01  0.28890527E-01  0.28890527E-01  0.28890527E-01  0.99009901E+03  0.99009901E+03  0.99009901E+03
  0.22197000E+01  0.29537003E-01  0.29537003E-01  0.29537003E-01  0.82758621E+03  0.82758621E+03  0.82758621E+03
  0.22549000E+01  0.30068445E-01  0.30068445E-01  0.30068445E-01  0.70270270E+03  0.70270270E+03  0.70270270E+03
  0.22901000E+01  0.30427955E-01  0.30427955E-01  0.30427955E-01  0.59633028E+03  0.59633028E+03  0.59633028E+03
  0.23254000E+01  0.30627074E-01  0.30627074E-01  0.30627074E-01  0.49773756E+03  0.49773756E+03  0.49773756E+03
  0.23606000E+01  0.30746012E-01  0.30746012E-01  0.30746012E-01  0.40000000E+03  0.40000000E+03  0.40000000E+03
  0.23958000E+01  0.30900471E-01  0.30900471E-01  0.30900471E-01  0.29268293E+03  0.29268293E+03  0.29268293E+03
  0.24311000E+01  0.31198945E-01  0.31198945E-01  0.31198945E-01  0.16853933E+03  0.16853933E+03  0.16853933E+03
  0.24663000E+01  0.31715173E-01  0.31715173E-01  0.31715173E-01  0.68965517E+02  0.68965517E+02  0.68965517E+02
  0.25015000E+01  0.32480991E-01  0.32480991E-01  0.32480991E-01 -0.81967213E+02 -0.81967213E+02 -0.81967213E+02
  0.25368000E+01  0.33490157E-01  0.33490157E-01  0.33490157E-01 -0.23529412E+03 -0.23529412E+03 -0.23529412E+03
  0.25720000E+01  0.34698760E-01  0.34698760E-01  0.34698760E-01 -0.29411765E+03 -0.29411765E+03 -0.29411765E+03
  0.26072000E+01  0.36021903E-01  0.36021903E-01  0.36021903E-01 -0.66666667E+03 -0.66666667E+03 -0.66666667E+03
  0.26424000E+01  0.37330996E-01  0.37330996E-01  0.37330996E-01 -0.68965517E+03 -0.68965517E+03 -0.68965517E+03
  0.26777000E+01  0.38467624E-01  0.38467624E-01  0.38467624E-01 -0.10000000E+04 -0.10000000E+04 -0.10000000E+04
  0.27129000E+01  0.39288754E-01  0.39288754E-01  0.39288754E-01 -0.10000000E+04 -0.10000000E+04 -0.10000000E+04
  0.27481000E+01  0.39730669E-01  0.39730669E-01  0.39730669E-01 -0.15384615E+04 -0.15384615E+04 -0.15384615E+04
  0.27834000E+01  0.39849810E-01  0.39849810E-01  0.39849810E-01 -0.15384615E+04 -0.15384615E+04 -0.15384615E+04
  0.28186000E+01  0.39799712E-01  0.39799712E-01  0.39799712E-01 -0.23076923E+04 -0.23076923E+04 -0.23076923E+04
  0.28538000E+01  0.39759150E-01  0.39759150E-01  0.39759150E-01 -0.30000000E+04 -0.30000000E+04 -0.30000000E+04
  0.28891000E+01  0.39865672E-01  0.39865672E-01  0.39865672E-01 -0.33333333E+04 -0.33333333E+04 -0.33333333E+04
  0.29243000E+01  0.40186906E-01  0.40186906E-01  0.40186906E-01 -0.40000000E+04 -0.40000000E+04 -0.40000000E+04
  0.29595000E+01  0.40720371E-01  0.40720371E-01  0.40720371E-01 -0.50000000E+04 -0.50000000E+04 -0.50000000E+04
  0.29948000E+01  0.41404208E-01  0.41404208E-01  0.41404208E-01  0.00000000E+00  0.00000000E+00  0.00000000E+00
  0.30300000E+01  0.42129136E-01  0.42129136E-01  0.42129136E-01  0.00000000E+00  0.00000000E+00  0.00000000E+00
  0.30652000E+01  0.42758568E-01  0.42758568E-01  0.42758568E-01  0.20000000E+04  0.20000000E+04  0.20000000E+04
  0.31005000E+01  0.43159334E-01  0.43159334E-01  0.43159334E-01  0.20000000E+04  0.20000000E+04  0.20000000E+04
  0.31357000E+01  0.43246103E-01  0.43246103E-01  0.43246103E-01  0.25000000E+04  0.25000000E+04  0.25000000E+04
  0.31709000E+01  0.43015831E-01  0.43015831E-01  0.43015831E-01  0.25000000E+04  0.25000000E+04  0.25000000E+04
  0.32062000E+01  0.42549934E-01  0.42549934E-01  0.42549934E-01  0.23076923E+04  0.23076923E+04  0.23076923E+04
  0.32414000E+01  0.41977683E-01  0.41977683E-01  0.41977683E-01  0.23076923E+04  0.23076923E+04  0.23076923E+04
  0.32766000E+01  0.41425253E-01  0.41425253E-01  0.41425253E-01  0.23529412E+04  0.23529412E+04  0.23529412E+04
  0.33119000E+01  0.40980910E-01  0.40980910E-01  0.40980910E-01  0.23529412E+04  0.23529412E+04  0.23529412E+04
  0.33471000E+01  0.40682906E-01  0.40682906E-01  0.40682906E-01  0.20000000E+04  0.20000000E+04  0.20000000E+04
  0.33823000E+01  0.40527329E-01  0.40527329E-01  0.40527329E-01  0.20000000E+04  0.20000000E+04  0.20000000E+04
  0.34176000E+01  0.40486500E-01  0.40486500E-01  0.40486500E-01  0.19230769E+04  0.19230769E+04  0.19230769E+04
  0.34528000E+01  0.40529552E-01  0.40529552E-01  0.40529552E-01  0.19230769E+04  0.19230769E+04  0.19230769E+04
  0.34880000E+01  0.40641362E-01  0.40641362E-01  0.40641362E-01  0.17241379E+04  0.17241379E+04  0.17241379E+04
  0.35233000E+01  0.40834607E-01  0.40834607E-01  0.40834607E-01  0.20000000E+04  0.20000000E+04  0.20000000E+04
  0.35585000E+01  0.41149103E-01  0.41149103E-01  0.41149103E-01  0.16000000E+04  0.16000000E+04  0.16000000E+04
  0.35937000E+01  0.41642774E-01  0.41642774E-01  0.41642774E-01  0.16666667E+04  0.16666667E+04  0.16666667E+04
  0.36290000E+01  0.42374417E-01  0.42374417E-01  0.42374417E-01  0.16666667E+04  0.16666667E+04  0.16666667E+04
  0.36642000E+01  0.43389298E-01  0.43389298E-01  0.43389298E-01  0.15384615E+04  0.15384615E+04  0.15384615E+04
  0.36994000E+01  0.44705745E-01  0.44705745E-01  0.44705745E-01  0.15384615E+04  0.15384615E+04  0.15384615E+04
  0.37347000E+01  0.46299466E-01  0.46299466E-01  0.46299466E-01  0.20000000E+04  0.20000000E+04  0.20000000E+04
  0.37699000E+01  0.48086704E-01  0.48086704E-01  0.48086704E-01  0.20000000E+04  0.20000000E+04  0.20000000E+04
  0.38051000E+01  0.49912902E-01  0.49912902E-01  0.49912902E-01  0.50000000E+04  0.50000000E+04  0.50000000E+04
  0.38404000E+01  0.51570389E-01  0.51570389E-01  0.51570389E-01  0.10000000E+05  0.10000000E+05  0.10000000E+05
  0.38756000E+01  0.52861767E-01  0.52861767E-01  0.52861767E-01  0.10000000E+05  0.10000000E+05  0.10000000E+05
  0.39108000E+01  0.53685648E-01  0.53685648E-01  0.53685648E-01  0.50000000E+04  0.50000000E+04  0.50000000E+04
  0.39461000E+01  0.54086406E-01  0.54086406E-01  0.54086406E-01  0.40000000E+04  0.40000000E+04  0.40000000E+04
  0.39813000E+01  0.54214613E-01  0.54214613E-01  0.54214613E-01  0.40000000E+04  0.40000000E+04  0.40000000E+04
  0.40165000E+01  0.54239166E-01  0.54239166E-01  0.54239166E-01  0.30000000E+04  0.30000000E+04  0.30000000E+04
  0.40518000E+01  0.54269009E-01  0.54269009E-01  0.54269009E-01  0.30000000E+04  0.30000000E+04  0.30000000E+04
  0.40870000E+01  0.54322492E-01  0.54322492E-01  0.54322492E-01  0.30000000E+04  0.30000000E+04  0.30000000E+04
  0.41222000E+01  0.54338243E-01  0.54338243E-01  0.54338243E-01  0.30000000E+04  0.30000000E+04  0.30000000E+04
  0.41575000E+01  0.54217370E-01  0.54217370E-01  0.54217370E-01  0.23529412E+04  0.23529412E+04  0.23529412E+04
  0.41927000E+01  0.53877743E-01  0.53877743E-01  0.53877743E-01  0.23529412E+04  0.23529412E+04  0.23529412E+04
  0.42279000E+01  0.53303454E-01  0.53303454E-01  0.53303454E-01  0.19230769E+04  0.19230769E+04  0.19230769E+04
  0.42632000E+01  0.52561196E-01  0.52561196E-01  0.52561196E-01  0.19230769E+04  0.19230769E+04  0.19230769E+04
  0.42984000E+01  0.51771810E-01  0.51771810E-01  0.51771810E-01  0.16666667E+04  0.16666667E+04  0.16666667E+04
  0.43336000E+01  0.51067678E-01  0.51067678E-01  0.51067678E-01  0.16666667E+04  0.16666667E+04  0.16666667E+04
  0.43688000E+01  0.50550597E-01  0.50550597E-01  0.50550597E-01  0.16216216E+04  0.16216216E+04  0.16216216E+04
  0.44041000E+01  0.50280150E-01  0.50280150E-01  0.50280150E-01  0.16216216E+04  0.16216216E+04  0.16216216E+04
  0.44393000E+01  0.50272142E-01  0.50272142E-01  0.50272142E-01  0.15000000E+04  0.15000000E+04  0.15000000E+04
  0.44745000E+01  0.50504329E-01  0.50504329E-01  0.50504329E-01  0.15000000E+04  0.15000000E+04  0.15000000E+04
  0.45098000E+01  0.50918954E-01  0.50918954E-01  0.50918954E-01  0.17241379E+04  0.17241379E+04  0.17241379E+04
  0.45450000E+01  0.51421579E-01  0.51421579E-01  0.51421579E-01  0.17241379E+04  0.17241379E+04  0.17241379E+04
  0.45802000E+01  0.51883128E-01  0.51883128E-01  0.51883128E-01  0.17241379E+04  0.17241379E+04  0.17241379E+04
  0.46155000E+01  0.52153725E-01  0.52153725E-01  0.52153725E-01  0.20000000E+04  0.20000000E+04  0.20000000E+04
  0.46507000E+01  0.52093006E-01  0.52093006E-01  0.52093006E-01  0.19230769E+04  0.19230769E+04  0.19230769E+04
  0.46859000E+01  0.51616185E-01  0.51616185E-01  0.51616185E-01  0.19230769E+04  0.19230769E+04  0.19230769E+04
  0.47212000E+01  0.50725689E-01  0.50725689E-01  0.50725689E-01  0.20000000E+04  0.20000000E+04  0.20000000E+04
  0.47564000E+01  0.49510898E-01  0.49510898E-01  0.49510898E-01  0.16666667E+04  0.16666667E+04  0.16666667E+04
  0.47916000E+01  0.48110537E-01  0.48110537E-01  0.48110537E-01  0.14285714E+04  0.14285714E+04  0.14285714E+04
  0.48269000E+01  0.46664287E-01  0.46664287E-01  0.46664287E-01  0.12307692E+04  0.12307692E+04  0.12307692E+04
  0.48621000E+01  0.45279671E-01  0.45279671E-01  0.45279671E-01  0.10975610E+04  0.10975610E+04  0.10975610E+04
  0.48973000E+01  0.44021310E-01  0.44021310E-01  0.44021310E-01  0.91743119E+03  0.91743119E+03  0.91743119E+03
  0.49326000E+01  0.42916253E-01  0.42916253E-01  0.42916253E-01  0.80291971E+03  0.80291971E+03  0.80291971E+03
  0.49678000E+01  0.41963822E-01  0.41963822E-01  0.41963822E-01  0.70063694E+03  0.70063694E+03  0.70063694E+03
  0.50030000E+01  0.41147294E-01  0.41147294E-01  0.41147294E-01  0.64705882E+03  0.64705882E+03  0.64705882E+03
  0.50383000E+01  0.40440731E-01  0.40440731E-01  0.40440731E-01  0.54455446E+03  0.54455446E+03  0.54455446E+03
  0.50735000E+01  0.39816559E-01  0.39816559E-01  0.39816559E-01  0.45248869E+03  0.45248869E+03  0.45248869E+03
  0.51087000E+01  0.39250557E-01  0.39250557E-01  0.39250557E-01  0.40000000E+03  0.40000000E+03  0.40000000E+03
  0.51440000E+01  0.38726608E-01  0.38726608E-01  0.38726608E-01  0.30769231E+03  0.30769231E+03  0.30769231E+03
  0.51792000E+01  0.38239184E-01  0.38239184E-01  0.38239184E-01  0.22988506E+03  0.22988506E+03  0.22988506E+03
  0.52144000E+01  0.37794212E-01  0.37794212E-01  0.37794212E-01  0.17793594E+03  0.17793594E+03  0.17793594E+03
  0.52497000E+01  0.37406122E-01  0.37406122E-01  0.37406122E-01  0.11320755E+03  0.11320755E+03  0.11320755E+03
  0.52849000E+01  0.37094410E-01  0.37094410E-01  0.37094410E-01  0.38910506E+02  0.38910506E+02  0.38910506E+02
  0.53201000E+01  0.36879911E-01  0.36879911E-01  0.36879911E-01 -0.76923077E+02 -0.76923077E+02 -0.76923077E+02
  0.53554000E+01  0.36781341E-01  0.36781341E-01  0.36781341E-01 -0.16597510E+03 -0.16597510E+03 -0.16597510E+03
  0.53906000E+01  0.36814505E-01  0.36814505E-01  0.36814505E-01 -0.22624434E+03 -0.22624434E+03 -0.22624434E+03
  0.54258000E+01  0.36990728E-01  0.36990728E-01  0.36990728E-01 -0.32110092E+03 -0.32110092E+03 -0.32110092E+03
  0.54611000E+01  0.37316962E-01  0.37316962E-01  0.37316962E-01 -0.43243243E+03 -0.43243243E+03 -0.43243243E+03
  0.54963000E+01  0.37793743E-01  0.37793743E-01  0.37793743E-01 -0.55172414E+03 -0.55172414E+03 -0.55172414E+03
  0.55315000E+01  0.38416058E-01  0.38416058E-01  0.38416058E-01 -0.62500000E+03 -0.62500000E+03 -0.62500000E+03
  0.55668000E+01  0.39170676E-01  0.39170676E-01  0.39170676E-01 -0.80000000E+03 -0.80000000E+03 -0.80000000E+03
  0.56020000E+01  0.40036541E-01  0.40036541E-01  0.40036541E-01 -0.89887640E+03 -0.89887640E+03 -0.89887640E+03
  0.56372000E+01  0.40984322E-01  0.40984322E-01  0.40984322E-01 -0.10769231E+04 -0.10769231E+04 -0.10769231E+04
  0.56725000E+01  0.41976255E-01  0.41976255E-01  0.41976255E-01 -0.12068966E+04 -0.12068966E+04 -0.12068966E+04
  0.57077000E+01  0.42965365E-01  0.42965365E-01  0.42965365E-01 -0.15000000E+04 -0.15000000E+04 -0.15000000E+04
  0.57429000E+01  0.43898946E-01  0.43898946E-01  0.43898946E-01 -0.17241379E+04 -0.17241379E+04 -0.17241379E+04
  0.57782000E+01  0.44719828E-01  0.44719828E-01  0.44719828E-01 -0.20000000E+04 -0.20000000E+04 -0.20000000E+04
  0.58134000E+01  0.45376244E-01  0.45376244E-01  0.45376244E-01 -0.20000000E+04 -0.20000000E+04 -0.20000000E+04
  0.58486000E+01  0.45834919E-01  0.45834919E-01  0.45834919E-01 -0.23076923E+04 -0.23076923E+04 -0.23076923E+04
  0.58839000E+01  0.46090136E-01  0.46090136E-01  0.46090136E-01 -0.16666667E+04 -0.16666667E+04 -0.16666667E+04
  0.59191000E+01  0.46172081E-01  0.46172081E-01  0.46172081E-01 -0.12000000E+04 -0.12000000E+04 -0.12000000E+04
  0.59543000E+01  0.46141356E-01  0.46141356E-01  0.46141356E-01 -0.12000000E+04 -0.12000000E+04 -0.12000000E+04
  0.59896000E+01  0.46075234E-01  0.46075234E-01  0.46075234E-01 -0.12500000E+04 -0.12500000E+04 -0.12500000E+04
  0.60248000E+01  0.46052476E-01  0.46052476E-01  0.46052476E-01 -0.12500000E+04 -0.12500000E+04 -0.12500000E+04
  0.60600000E+01  0.46138700E-01  0.46138700E-01  0.46138700E-01 -0.12195122E+04 -0.12195122E+04 -0.12195122E+04
  0.60953000E+01  0.46374579E-01  0.46374579E-01  0.46374579E-01 -0.14705882E+04 -0.14705882E+04 -0.14705882E+04
  0.61305000E+01  0.46771568E-01  0.46771568E-01  0.46771568E-01 -0.14705882E+04 -0.14705882E+04 -0.14705882E+04
  0.61657000E+01  0.47313896E-01  0.47313896E-01  0.47313896E-01 -0.17241379E+04 -0.17241379E+04 -0.17241379E+04
