      #Energy        TDOS-UP        TDOS-DOWN
     -19.74703       0.00000       0.00000
     -19.64903       0.00000       0.00000
     -19.55203       0.00000       0.00000
     -19.45403       0.00000       0.00000
     -19.35603       0.00000       0.00000
     -19.25903       0.00000       0.00000
     -19.16103       0.00000       0.00000
     -19.06303       0.00000       0.00000
     -18.96603       0.00000       0.00000
     -18.86803       0.00000       0.00000
     -18.77003       0.00000       0.00000
     -18.67303       0.00000       0.00000
     -18.57503       0.00000       0.00000
     -18.47803       0.00000       0.00000
     -18.38003       0.00000       0.00000
     -18.28203       0.00000       0.00000
     -18.18503       0.00000       0.00000
     -18.08703       0.00000       0.00000
     -17.98903       0.00000       0.00000
     -17.89203       0.00000       0.00000
     -17.79403       0.00000       0.00000
     -17.69603       0.00673      -0.00673
     -17.59903       0.02689      -0.02689
     -17.50103       0.05961      -0.05961
     -17.40403       0.10463      -0.10463
     -17.30603       0.16440      -0.16440
     -17.20803       0.24196      -0.24196
     -17.11103       0.34416      -0.34416
     -17.01303       0.48588      -0.48588
     -16.91503       0.70399      -0.70399
     -16.81803       1.09644      -1.09644
     -16.72003       1.91766      -1.91766
     -16.62203       2.48150      -2.48150
     -16.52503       2.48150      -2.48150
     -16.42703       2.48150      -2.48150
     -16.33003       2.48150      -2.48150
     -16.23203       2.48150      -2.48150
     -16.13403       2.48150      -2.48150
     -16.03703       2.48150      -2.48150
     -15.93903       2.48150      -2.48150
     -15.84103       2.48150      -2.48150
     -15.74403       2.48150      -2.48150
     -15.64603       2.48150      -2.48150
     -15.54803       2.48150      -2.48150
     -15.45103       2.48150      -2.48150
     -15.35303       2.48150      -2.48150
     -15.25603       2.48150      -2.48150
     -15.15803       2.48150      -2.48150
     -15.06003       2.48150      -2.48150
     -14.96303       2.48150      -2.48150
     -14.86503       2.48150      -2.48150
     -14.76703       2.48150      -2.48150
     -14.67003       2.48150      -2.48150
     -14.57203       2.48150      -2.48150
     -14.47403       2.48150      -2.48150
     -14.37703       2.48150      -2.48150
     -14.27903       2.48150      -2.48150
     -14.18203       2.48150      -2.48150
     -14.08403       2.48150      -2.48150
     -13.98603       2.48150      -2.48150
     -13.88903       2.48150      -2.48150
     -13.79103       2.48150      -2.48150
     -13.69303       2.48150      -2.48150
     -13.59603       2.48150      -2.48150
     -13.49803       2.48150      -2.48150
     -13.40103       2.48150      -2.48150
     -13.30303       2.48150      -2.48150
     -13.20503       2.48150      -2.48150
     -13.10803       2.48150      -2.48150
     -13.01003       2.48150      -2.48150
     -12.91203       2.48150      -2.48150
     -12.81503       2.48150      -2.48150
     -12.71703       2.48150      -2.48150
     -12.61903       2.48150      -2.48150
     -12.52203       2.48150      -2.48150
     -12.42403       2.48150      -2.48150
     -12.32703       2.48150      -2.48150
     -12.22903       2.48150      -2.48150
     -12.13103       2.48150      -2.48150
     -12.03403       2.48150      -2.48150
     -11.93603       2.48150      -2.48150
     -11.83803       2.48150      -2.48150
     -11.74103       2.48150      -2.48150
     -11.64303       2.48150      -2.48150
     -11.54503       2.48150      -2.48150
     -11.44803       2.48150      -2.48150
     -11.35003       2.48150      -2.48150
     -11.25303       2.48150      -2.48150
     -11.15503       2.48150      -2.48150
     -11.05703       2.48150      -2.48150
     -10.96003       2.48150      -2.48150
     -10.86203       2.48150      -2.48150
     -10.76403       2.48150      -2.48150
     -10.66703       2.48150      -2.48150
     -10.56903       2.48150      -2.48150
     -10.47103       2.48150      -2.48150
     -10.37403       2.48150      -2.48150
     -10.27603       2.48150      -2.48150
     -10.17903       2.48150      -2.48150
     -10.08103       2.48150      -2.48150
      -9.98303       2.48150      -2.48150
      -9.88603       2.48150      -2.48150
      -9.78803       2.48150      -2.48150
      -9.69003       2.48150      -2.48150
      -9.59303       2.48150      -2.48150
      -9.49503       2.48150      -2.48150
      -9.39703       2.48150      -2.48150
      -9.30003       2.48150      -2.48150
      -9.20203       2.48150      -2.48150
      -9.10503       2.48150      -2.48150
      -9.00703       2.48150      -2.48150
      -8.90903       2.48150      -2.48150
      -8.81203       2.48150      -2.48150
      -8.71403       2.48150      -2.48150
      -8.61603       2.48150      -2.48150
      -8.51903       2.48150      -2.48150
      -8.42103       2.48150      -2.48150
      -8.32303       2.48150      -2.48150
      -8.22603       2.48150      -2.48150
      -8.12803       2.48150      -2.48150
      -8.03103       2.48150      -2.48150
      -7.93303       2.48150      -2.48150
      -7.83503       2.48150      -2.48150
      -7.73803       2.48150      -2.48150
      -7.64003       2.48150      -2.48150
      -7.54203       2.48150      -2.48150
      -7.44503       2.48150      -2.48150
      -7.34703       2.48150      -2.48150
      -7.24903       2.48150      -2.48150
      -7.15203       2.48150      -2.48150
      -7.05403       2.48150      -2.48150
      -6.95703       2.48150      -2.48150
      -6.85903       2.48150      -2.48150
      -6.76103       2.48150      -2.48150
      -6.66403       2.48150      -2.48150
      -6.56603       2.48150      -2.48150
      -6.46803       2.48150      -2.48150
      -6.37103       2.48150      -2.48150
      -6.27303       2.48150      -2.48150
      -6.17503       2.48848      -2.48848
      -6.07803       2.51260      -2.51260
      -5.98003       2.55537      -2.55537
      -5.88303       2.61748      -2.61748
      -5.78503       2.71133      -2.71133
      -5.68703       2.86911      -2.86911
      -5.59003       3.10153      -3.10153
      -5.49203       3.34958      -3.34958
      -5.39403       3.52644      -3.52644
      -5.29703       3.67026      -3.67026
      -5.19903       3.91118      -3.91118
      -5.10103       4.25139      -4.25139
      -5.00403       4.65594      -4.65594
      -4.90603       5.16106      -5.16106
      -4.80903       5.51162      -5.51162
      -4.71103       5.64153      -5.64153
      -4.61303       5.83856      -5.83856
      -4.51603       6.08714      -6.08714
      -4.41803       6.34441      -6.34441
      -4.32003       6.60988      -6.60988
      -4.22303       6.82043      -6.82043
      -4.12503       7.00931      -7.00931
      -4.02703       7.22362      -7.22362
      -3.93003       7.38036      -7.38036
      -3.83203       7.44333      -7.44333
      -3.73503       7.47208      -7.47208
      -3.63703       7.52934      -7.52934
      -3.53903       7.67567      -7.67567
      -3.44203       7.89749      -7.89749
      -3.34403       8.14227      -8.14227
      -3.24603       8.34384      -8.34384
      -3.14903       8.51646      -8.51646
      -3.05103       8.70953      -8.70953
      -2.95303       8.91559      -8.91559
      -2.85603       9.09124      -9.09124
      -2.75803       9.21509      -9.21509
      -2.66103       9.35559      -9.35559
      -2.56303       9.55389      -9.55389
      -2.46503       9.80139      -9.80139
      -2.36803      10.01434     -10.01434
      -2.27003      10.20971     -10.20971
      -2.17203      10.44564     -10.44564
      -2.07503      10.65898     -10.65898
      -1.97703      10.82750     -10.82750
      -1.87903      10.96160     -10.96160
      -1.78203      11.10532     -11.10532
      -1.68403      11.24250     -11.24250
      -1.58703      11.34635     -11.34635
      -1.48903      11.44357     -11.44357
      -1.39103      11.52724     -11.52724
      -1.29403      11.58243     -11.58243
      -1.19603      11.62388     -11.62388
      -1.09803      11.68491     -11.68491
      -1.00103      11.78178     -11.78178
      -0.90303      11.91276     -11.91276
      -0.80503      12.10652     -12.10652
      -0.70803      12.30360     -12.30360
      -0.61003      12.49779     -12.49779
      -0.51303      12.82116     -12.82116
      -0.41503      13.22010     -13.22010
      -0.31703      13.48070     -13.48070
      -0.22003      13.56536     -13.56536
      -0.12203      13.58934     -13.58934
      -0.02403      13.59719     -13.59719
       0.07297      13.59719     -13.59719
       0.17097      13.59719     -13.59719
       0.26897      13.59719     -13.59719
       0.36597      13.59719     -13.59719
       0.46397      13.59719     -13.59719
       0.56097      13.59719     -13.59719
       0.65897      13.59719     -13.59719
       0.75697      13.59719     -13.59719
       0.85397      13.59719     -13.59719
       0.95197      13.59719     -13.59719
       1.04997      13.59719     -13.59719
       1.14697      13.59719     -13.59719
       1.24497      13.59719     -13.59719
       1.34297      13.59719     -13.59719
       1.43997      13.59719     -13.59719
       1.53797      13.59719     -13.59719
       1.63497      13.59719     -13.59719
       1.73297      13.59719     -13.59719
       1.83097      13.59719     -13.59719
       1.92797      13.59719     -13.59719
       2.02597      13.59719     -13.59719
       2.12397      13.59719     -13.59719
       2.22097      13.59719     -13.59719
       2.31897      13.59734     -13.59734
       2.41697      13.59801     -13.59801
       2.51397      13.59917     -13.59917
       2.61197      13.60062     -13.60062
       2.70897      13.60243     -13.60243
       2.80697      13.60461     -13.60461
       2.90497      13.60714     -13.60714
       3.00197      13.61003     -13.61003
       3.09997      13.61332     -13.61332
       3.19797      13.61703     -13.61703
       3.29497      13.62117     -13.62117
       3.39297      13.62580     -13.62580
       3.49097      13.63094     -13.63094
       3.58797      13.63660     -13.63660
       3.68597      13.64283     -13.64283
       3.78297      13.64970     -13.64970
       3.88097      13.65724     -13.65724
       3.97897      13.66556     -13.66556
       4.07597      13.67471     -13.67471
       4.17397      13.68474     -13.68474
       4.27197      13.69579     -13.69579
       4.36897      13.70804     -13.70804
       4.46697      13.72171     -13.72171
       4.56497      13.73731     -13.73731
       4.66197      13.75545     -13.75545
       4.75997      13.79676     -13.79676
       4.85697      13.88229     -13.88229
       4.95497      13.98803     -13.98803
       5.05297      14.08913     -14.08913
       5.14997      14.18662     -14.18662
       5.24797      14.28224     -14.28224
       5.34597      14.40120     -14.40120
       5.44297      14.55981     -14.55981
       5.54097      14.73966     -14.73966
       5.63797      14.89280     -14.89280
       5.73597      14.99434     -14.99434
       5.83397      15.11184     -15.11169
       5.93097      15.30574     -15.30745
       6.02897      15.50843     -15.50834
       6.12697      15.68393     -15.67969
       6.22397      15.86432     -15.85983
       6.32197      16.02883     -16.02464
       6.41997      16.18456     -16.18056
       6.51697      16.35040     -16.34844
       6.61497      16.50022     -16.50203
       6.71197      16.63505     -16.63754
       6.80997      16.77458     -16.77570
       6.90797      16.90946     -16.91444
       7.00497      17.03414     -17.04561
       7.10297      17.20139     -17.20374
       7.20097      17.41590     -17.40003
       7.29797      17.55363     -17.53947
       7.39597      17.59419     -17.58844
       7.49397      17.60416     -17.59824
       7.59097      17.60430     -17.59828
       7.68897      17.60430     -17.59828
       7.78597      17.60430     -17.59828
       7.88397      17.60430     -17.59828
       7.98197      17.60430     -17.59828
       8.07897      17.60430     -17.59828
       8.17697      17.60430     -17.59828
       8.27497      17.60430     -17.59828
       8.37197      17.60430     -17.59828
       8.46997      17.60430     -17.59828
       8.56797      17.60430     -17.59828
       8.66497      17.60430     -17.59828
       8.76297      17.60430     -17.59828
       8.85997      17.60430     -17.59828
       8.95797      17.60430     -17.59828
       9.05597      17.60430     -17.59828
       9.15297      17.60430     -17.59828
       9.25097      17.60430     -17.59828
       9.34897      17.60430     -17.59828
       9.44597      17.60430     -17.59828
       9.54397      17.60430     -17.59828
