#  frequency dependent      REAL DIELECTRIC FUNCTION (independent particle, no local field effects)
#     E(ev)      X         Y         Z        XY        YZ        ZX
#  --------------------------------------------------------------------------------------
    0.000000  768.950194  768.950194  768.950194   -0.000000   -0.000000   -0.000000
    0.030644  767.502117  767.502117  767.502117   -0.000000   -0.000000   -0.000000
    0.061289  762.704991  762.704991  762.704991   -0.000000   -0.000000   -0.000000
    0.091933  753.273287  753.273287  753.273287   -0.000000   -0.000000   -0.000000
    0.122578  737.305118  737.305118  737.305118   -0.000000   -0.000000   -0.000000
    0.153222  712.623035  712.623035  712.623035   -0.000000   -0.000000   -0.000000
    0.183867  677.207259  677.207259  677.207259   -0.000000   -0.000000   -0.000000
    0.214511  629.665001  629.665001  629.665001   -0.000000   -0.000000   -0.000000
    0.245156  569.648798  569.648798  569.648798   -0.000000   -0.000000   -0.000000
    0.275800  498.140303  498.140303  498.140303   -0.000000   -0.000000   -0.000000
    0.306445  417.510722  417.510722  417.510722   -0.000000   -0.000000   -0.000000
    0.337089  331.328123  331.328123  331.328123   -0.000000   -0.000000   -0.000000
    0.367734  243.925056  243.925056  243.925056   -0.000000   -0.000000   -0.000000
    0.398378  159.810226  159.810226  159.810226   -0.000000   -0.000000   -0.000000
    0.429023   83.044327   83.044327   83.044327   -0.000000   -0.000000   -0.000000
    0.459667   16.715009   16.715009   16.715009   -0.000000   -0.000000   -0.000000
    0.490312  -37.383993  -37.383993  -37.383993   -0.000000   -0.000000   -0.000000
    0.520956  -78.819238  -78.819238  -78.819238    0.000000   -0.000000   -0.000000
    0.551601 -108.343981 -108.343981 -108.343981    0.000000   -0.000000   -0.000000
    0.582245 -127.555767 -127.555767 -127.555767   -0.000000   -0.000000   -0.000000
    0.612889 -138.483996 -138.483996 -138.483996   -0.000000   -0.000000   -0.000000
    0.643534 -143.205716 -143.205716 -143.205716   -0.000000   -0.000000   -0.000000
    0.674178 -143.559877 -143.559877 -143.559877   -0.000000   -0.000000   -0.000000
    0.704823 -140.992144 -140.992144 -140.992144   -0.000000   -0.000000   -0.000000
    0.735467 -136.524173 -136.524173 -136.524173   -0.000000   -0.000000   -0.000000
    0.766112 -130.812549 -130.812549 -130.812549    0.000000   -0.000000    0.000000
    0.796756 -124.254080 -124.254080 -124.254080    0.000000   -0.000000    0.000000
    0.827401 -117.095065 -117.095065 -117.095065    0.000000   -0.000000    0.000000
    0.858045 -109.518076 -109.518076 -109.518076    0.000000   -0.000000    0.000000
    0.888690 -101.692035 -101.692035 -101.692035    0.000000    0.000000    0.000000
    0.919334  -93.789863  -93.789863  -93.789863    0.000000   -0.000000    0.000000
    0.949979  -85.982683  -85.982683  -85.982683    0.000000   -0.000000    0.000000
    0.980623  -78.424226  -78.424226  -78.424226    0.000000   -0.000000    0.000000
    1.011268  -71.237105  -71.237105  -71.237105    0.000000   -0.000000    0.000000
    1.041912  -64.505190  -64.505190  -64.505190    0.000000   -0.000000    0.000000
    1.072557  -58.275009  -58.275009  -58.275009    0.000000   -0.000000    0.000000
    1.103201  -52.561266  -52.561266  -52.561266    0.000000   -0.000000    0.000000
    1.133845  -47.354534  -47.354534  -47.354534    0.000000   -0.000000    0.000000
    1.164490  -42.626794  -42.626794  -42.626794    0.000000   -0.000000    0.000000
    1.195134  -38.334307  -38.334307  -38.334307    0.000000   -0.000000    0.000000
    1.225779  -34.418872  -34.418872  -34.418872    0.000000   -0.000000    0.000000
    1.256423  -30.808705  -30.808705  -30.808705    0.000000   -0.000000    0.000000
    1.287068  -27.422267  -27.422267  -27.422267    0.000000   -0.000000    0.000000
    1.317712  -24.173618  -24.173618  -24.173618    0.000000   -0.000000    0.000000
    1.348357  -20.980718  -20.980718  -20.980718    0.000000   -0.000000    0.000000
    1.379001  -17.773191  -17.773191  -17.773191    0.000000   -0.000000    0.000000
    1.409646  -14.498450  -14.498450  -14.498450    0.000000    0.000000    0.000000
    1.440290  -11.124493  -11.124493  -11.124493    0.000000    0.000000    0.000000
    1.470935   -7.639736   -7.639736   -7.639736    0.000000    0.000000    0.000000
    1.501579   -4.051101   -4.051101   -4.051101    0.000000    0.000000    0.000000
    1.532224   -0.382489   -0.382489   -0.382489    0.000000    0.000000    0.000000
    1.562868    3.324525    3.324525    3.324525    0.000000    0.000000    0.000000
    1.593513    7.006940    7.006940    7.006940    0.000000    0.000000    0.000000
    1.624157   10.573855   10.573855   10.573855    0.000000    0.000000    0.000000
    1.654802   13.899543   13.899543   13.899543    0.000000    0.000000    0.000000
    1.685446   16.818098   16.818098   16.818098    0.000000    0.000000    0.000000
    1.716090   19.123324   19.123324   19.123324    0.000000    0.000000    0.000000
    1.746735   20.576298   20.576298   20.576298    0.000000    0.000000    0.000000
    1.777379   20.922375   20.922375   20.922375    0.000000   -0.000000    0.000000
    1.808024   19.918555   19.918555   19.918555    0.000000   -0.000000    0.000000
    1.838668   17.368929   17.368929   17.368929    0.000000   -0.000000    0.000000
    1.869313   13.164276   13.164276   13.164276    0.000000   -0.000000    0.000000
    1.899957    7.318889    7.318889    7.318889    0.000000   -0.000000   -0.000000
    1.930602   -0.004016   -0.004016   -0.004016    0.000000   -0.000000   -0.000000
    1.961246   -8.486149   -8.486149   -8.486149    0.000000   -0.000000   -0.000000
    1.991891  -17.672751  -17.672751  -17.672751    0.000000    0.000000    0.000000
    2.022535  -27.016213  -27.016213  -27.016213    0.000000    0.000000    0.000000
    2.053180  -35.938816  -35.938816  -35.938816    0.000000    0.000000    0.000000
    2.083824  -43.903568  -43.903568  -43.903568   -0.000000    0.000000   -0.000000
    2.114469  -50.479479  -50.479479  -50.479479   -0.000000    0.000000    0.000000
    2.145113  -55.388200  -55.388200  -55.388200   -0.000000    0.000000    0.000000
    2.175758  -58.524690  -58.524690  -58.524690   -0.000000    0.000000    0.000000
    2.206402  -59.948781  -59.948781  -59.948781   -0.000000    0.000000   -0.000000
    2.237047  -59.853528  -59.853528  -59.853528   -0.000000   -0.000000   -0.000000
    2.267691  -58.518937  -58.518937  -58.518937   -0.000000   -0.000000   -0.000000
    2.298335  -56.261713  -56.261713  -56.261713   -0.000000   -0.000000   -0.000000
    2.328980  -53.391350  -53.391350  -53.391350   -0.000000   -0.000000   -0.000000
    2.359624  -50.177749  -50.177749  -50.177749   -0.000000   -0.000000   -0.000000
    2.390269  -46.833605  -46.833605  -46.833605   -0.000000   -0.000000   -0.000000
    2.420913  -43.509952  -43.509952  -43.509952   -0.000000   -0.000000   -0.000000
    2.451558  -40.301360  -40.301360  -40.301360   -0.000000    0.000000   -0.000000
    2.482202  -37.256654  -37.256654  -37.256654   -0.000000    0.000000   -0.000000
    2.512847  -34.392061  -34.392061  -34.392061   -0.000000    0.000000   -0.000000
    2.543491  -31.702799  -31.702799  -31.702799   -0.000000    0.000000   -0.000000
    2.574136  -29.172770  -29.172770  -29.172770   -0.000000    0.000000   -0.000000
    2.604780  -26.781384  -26.781384  -26.781384   -0.000000    0.000000   -0.000000
    2.635425  -24.507957  -24.507957  -24.507957   -0.000000    0.000000   -0.000000
    2.666069  -22.334189  -22.334189  -22.334189   -0.000000    0.000000   -0.000000
    2.696714  -20.245491  -20.245491  -20.245491   -0.000000    0.000000   -0.000000
    2.727358  -18.231110  -18.231110  -18.231110   -0.000000    0.000000   -0.000000
    2.758003  -16.283685  -16.283685  -16.283685   -0.000000    0.000000   -0.000000
    2.788647  -14.398223  -14.398223  -14.398223   -0.000000    0.000000   -0.000000
    2.819292  -12.570903  -12.570903  -12.570903   -0.000000    0.000000   -0.000000
    2.849936  -10.797428  -10.797428  -10.797428   -0.000000    0.000000   -0.000000
    2.880580   -9.072032   -9.072032   -9.072032   -0.000000   -0.000000   -0.000000
    2.911225   -7.386507   -7.386507   -7.386507   -0.000000   -0.000000   -0.000000
    2.941869   -5.729999   -5.729999   -5.729999   -0.000000   -0.000000   -0.000000
    2.972514   -4.089134   -4.089134   -4.089134   -0.000000   -0.000000   -0.000000
    3.003158   -2.448678   -2.448678   -2.448678   -0.000000   -0.000000   -0.000000
    3.033803   -0.792390   -0.792390   -0.792390   -0.000000   -0.000000   -0.000000
    3.064447    0.895923    0.895923    0.895923   -0.000000   -0.000000   -0.000000
    3.095092    2.631000    2.631000    2.631000   -0.000000   -0.000000   -0.000000
    3.125736    4.424588    4.424588    4.424588   -0.000000   -0.000000   -0.000000
    3.156381    6.283521    6.283521    6.283521   -0.000000   -0.000000   -0.000000
    3.187025    8.207598    8.207598    8.207598   -0.000000   -0.000000   -0.000000
    3.217670   10.187223   10.187223   10.187223   -0.000000   -0.000000   -0.000000
    3.248314   12.201096   12.201096   12.201096   -0.000000   -0.000000   -0.000000
    3.278959   14.214054   14.214054   14.214054   -0.000000   -0.000000   -0.000000
    3.309603   16.175205   16.175205   16.175205   -0.000000   -0.000000   -0.000000
    3.340248   18.016952   18.016952   18.016952   -0.000000   -0.000000   -0.000000
    3.370892   19.655193   19.655193   19.655193   -0.000000   -0.000000   -0.000000
    3.401536   20.991532   20.991532   20.991532   -0.000000   -0.000000   -0.000000
    3.432181   21.918375   21.918375   21.918375   -0.000000   -0.000000   -0.000000
    3.462825   22.327313   22.327313   22.327313   -0.000000   -0.000000   -0.000000
    3.493470   22.120979   22.120979   22.120979   -0.000000   -0.000000   -0.000000
    3.524114   21.227096   21.227096   21.227096   -0.000000   -0.000000   -0.000000
    3.554759   19.612692   19.612692   19.612692    0.000000   -0.000000   -0.000000
    3.585403   17.295638   17.295638   17.295638    0.000000   -0.000000   -0.000000
    3.616048   14.349983   14.349983   14.349983    0.000000   -0.000000   -0.000000
    3.646692   10.903171   10.903171   10.903171    0.000000   -0.000000   -0.000000
    3.677337    7.124025    7.124025    7.124025    0.000000   -0.000000   -0.000000
    3.707981    3.203187    3.203187    3.203187    0.000000   -0.000000   -0.000000
    3.738626   -0.670702   -0.670702   -0.670702    0.000000   -0.000000   -0.000000
    3.769270   -4.334453   -4.334453   -4.334453    0.000000   -0.000000   -0.000000
    3.799915   -7.668711   -7.668711   -7.668711    0.000000   -0.000000   -0.000000
    3.830559  -10.607849  -10.607849  -10.607849    0.000000    0.000000   -0.000000
    3.861204  -13.140019  -13.140019  -13.140019    0.000000    0.000000   -0.000000
    3.891848  -15.298248  -15.298248  -15.298248    0.000000    0.000000    0.000000
    3.922493  -17.145237  -17.145237  -17.145237    0.000000    0.000000    0.000000
    3.953137  -18.755903  -18.755903  -18.755903   -0.000000    0.000000    0.000000
    3.983781  -20.201187  -20.201187  -20.201187   -0.000000   -0.000000    0.000000
    4.014426  -21.536171  -21.536171  -21.536171   -0.000000   -0.000000    0.000000
    4.045070  -22.793855  -22.793855  -22.793855   -0.000000   -0.000000    0.000000
    4.075715  -23.984990  -23.984990  -23.984990   -0.000000   -0.000000    0.000000
    4.106359  -25.102259  -25.102259  -25.102259   -0.000000    0.000000    0.000000
    4.137004  -26.127261  -26.127261  -26.127261   -0.000000    0.000000    0.000000
    4.167648  -27.038010  -27.038010  -27.038010   -0.000000    0.000000    0.000000
    4.198293  -27.815241  -27.815241  -27.815241   -0.000000    0.000000    0.000000
    4.228937  -28.446512  -28.446512  -28.446512   -0.000000    0.000000    0.000000
    4.259582  -28.927637  -28.927637  -28.927637   -0.000000    0.000000    0.000000
    4.290226  -29.262174  -29.262174  -29.262174   -0.000000    0.000000    0.000000
    4.320871  -29.459335  -29.459335  -29.459335   -0.000000    0.000000    0.000000
    4.351515  -29.531741  -29.531741  -29.531741   -0.000000    0.000000    0.000000
    4.382160  -29.493447  -29.493447  -29.493447   -0.000000    0.000000   -0.000000
    4.412804  -29.358545  -29.358545  -29.358545   -0.000000    0.000000   -0.000000
    4.443449  -29.140896  -29.140896  -29.140896   -0.000000    0.000000   -0.000000
    4.474093  -28.854210  -28.854210  -28.854210   -0.000000    0.000000   -0.000000
    4.504738  -28.512612  -28.512612  -28.512612   -0.000000    0.000000   -0.000000
    4.535382  -28.130893  -28.130893  -28.130893   -0.000000    0.000000   -0.000000
    4.566026  -27.724560  -27.724560  -27.724560   -0.000000    0.000000   -0.000000
    4.596671  -27.309258  -27.309258  -27.309258   -0.000000    0.000000   -0.000000
    4.627315  -26.899871  -26.899871  -26.899871   -0.000000    0.000000   -0.000000
    4.657960  -26.509189  -26.509189  -26.509189   -0.000000    0.000000   -0.000000
    4.688604  -26.146698  -26.146698  -26.146698   -0.000000    0.000000   -0.000000
    4.719249  -25.817481  -25.817481  -25.817481   -0.000000    0.000000   -0.000000
    4.749893  -25.521542  -25.521542  -25.521542   -0.000000    0.000000   -0.000000
    4.780538  -25.253700  -25.253700  -25.253700   -0.000000    0.000000   -0.000000
    4.811182  -25.004148  -25.004148  -25.004148    0.000000    0.000000    0.000000
    4.841827  -24.759486  -24.759486  -24.759486    0.000000    0.000000    0.000000
    4.872471  -24.504287  -24.504287  -24.504287    0.000000    0.000000    0.000000
    4.903116  -24.222985  -24.222985  -24.222985    0.000000    0.000000    0.000000
    4.933760  -23.901910  -23.901910  -23.901910   -0.000000    0.000000    0.000000
    4.964405  -23.531011  -23.531011  -23.531011   -0.000000    0.000000    0.000000
    4.995049  -23.105273  -23.105273  -23.105273   -0.000000    0.000000    0.000000
    5.025694  -22.625293  -22.625293  -22.625293   -0.000000    0.000000    0.000000
    5.056338  -22.097068  -22.097068  -22.097068   -0.000000    0.000000    0.000000
    5.086983  -21.531160  -21.531160  -21.531160   -0.000000    0.000000    0.000000
    5.117627  -20.941129  -20.941129  -20.941129   -0.000000    0.000000    0.000000
    5.148271  -20.341635  -20.341635  -20.341635   -0.000000    0.000000    0.000000
    5.178916  -19.746762  -19.746762  -19.746762   -0.000000    0.000000    0.000000
    5.209560  -19.168821  -19.168821  -19.168821   -0.000000    0.000000    0.000000
    5.240205  -18.617572  -18.617572  -18.617572   -0.000000    0.000000   -0.000000
    5.270849  -18.100546  -18.100546  -18.100546   -0.000000    0.000000   -0.000000
    5.301494  -17.623834  -17.623834  -17.623834   -0.000000    0.000000   -0.000000
    5.332138  -17.193383  -17.193383  -17.193383   -0.000000    0.000000   -0.000000
    5.362783  -16.816395  -16.816395  -16.816395   -0.000000    0.000000   -0.000000
    5.393427  -16.502547  -16.502547  -16.502547   -0.000000    0.000000   -0.000000
    5.424072  -16.264442  -16.264442  -16.264442   -0.000000    0.000000   -0.000000
    5.454716  -16.117175  -16.117175  -16.117175   -0.000000    0.000000   -0.000000
    5.485361  -16.076771  -16.076771  -16.076771   -0.000000    0.000000   -0.000000
    5.516005  -16.157589  -16.157589  -16.157589   -0.000000   -0.000000   -0.000000
    5.546650  -16.368997  -16.368997  -16.368997   -0.000000   -0.000000   -0.000000
    5.577294  -16.711986  -16.711986  -16.711986   -0.000000   -0.000000   -0.000000
    5.607939  -17.176358  -17.176358  -17.176358   -0.000000   -0.000000   -0.000000
    5.638583  -17.739403  -17.739403  -17.739403   -0.000000   -0.000000   -0.000000
    5.669227  -18.366512  -18.366512  -18.366512   -0.000000   -0.000000   -0.000000
    5.699872  -19.014027  -19.014027  -19.014027   -0.000000   -0.000000    0.000000
    5.730516  -19.633958  -19.633958  -19.633958   -0.000000   -0.000000    0.000000
    5.761161  -20.179701  -20.179701  -20.179701   -0.000000   -0.000000    0.000000
    5.791805  -20.611983  -20.611983  -20.611983   -0.000000   -0.000000    0.000000
    5.822450  -20.903354  -20.903354  -20.903354   -0.000000   -0.000000    0.000000
    5.853094  -21.040673  -21.040673  -21.040673   -0.000000   -0.000000    0.000000
    5.883739  -21.025484  -21.025484  -21.025484   -0.000000   -0.000000    0.000000
    5.914383  -20.871850  -20.871850  -20.871850   -0.000000   -0.000000    0.000000
    5.945028  -20.602724  -20.602724  -20.602724   -0.000000   -0.000000    0.000000
    5.975672  -20.245668  -20.245668  -20.245668   -0.000000   -0.000000    0.000000
    6.006317  -19.829006  -19.829006  -19.829006   -0.000000   -0.000000   -0.000000
    6.036961  -19.378480  -19.378480  -19.378480   -0.000000   -0.000000   -0.000000
    6.067606  -18.915485  -18.915485  -18.915485   -0.000000   -0.000000   -0.000000
    6.098250  -18.456170  -18.456170  -18.456170   -0.000000   -0.000000   -0.000000
    6.128895  -18.011707  -18.011707  -18.011707   -0.000000   -0.000000   -0.000000
    6.159539  -17.588883  -17.588883  -17.588883   -0.000000   -0.000000   -0.000000
    6.190184  -17.191049  -17.191049  -17.191049   -0.000000   -0.000000   -0.000000
    6.220828  -16.818899  -16.818899  -16.818899   -0.000000   -0.000000   -0.000000
    6.251472  -16.471250  -16.471250  -16.471250   -0.000000   -0.000000   -0.000000
    6.282117  -16.145594  -16.145594  -16.145594   -0.000000   -0.000000   -0.000000
    6.312761  -15.838534  -15.838534  -15.838534   -0.000000   -0.000000   -0.000000
    6.343406  -15.546345  -15.546345  -15.546345   -0.000000   -0.000000   -0.000000
    6.374050  -15.265291  -15.265291  -15.265291   -0.000000   -0.000000   -0.000000
    6.404695  -14.992126  -14.992126  -14.992126   -0.000000   -0.000000   -0.000000
    6.435339  -14.724417  -14.724417  -14.724417   -0.000000   -0.000000   -0.000000
    6.465984  -14.460731  -14.460731  -14.460731   -0.000000   -0.000000   -0.000000
    6.496628  -14.200673  -14.200673  -14.200673   -0.000000   -0.000000   -0.000000
    6.527273  -13.944843  -13.944843  -13.944843   -0.000000   -0.000000   -0.000000
    6.557917  -13.694489  -13.694489  -13.694489   -0.000000   -0.000000   -0.000000
    6.588562  -13.451184  -13.451184  -13.451184   -0.000000   -0.000000   -0.000000
    6.619206  -13.216528  -13.216528  -13.216528   -0.000000    0.000000   -0.000000
    6.649851  -12.991764  -12.991764  -12.991764   -0.000000    0.000000   -0.000000
    6.680495  -12.777689  -12.777689  -12.777689   -0.000000    0.000000   -0.000000
    6.711140  -12.574492  -12.574492  -12.574492   -0.000000    0.000000    0.000000
    6.741784  -12.381916  -12.381916  -12.381916   -0.000000    0.000000    0.000000
    6.772429  -12.199325  -12.199325  -12.199325   -0.000000    0.000000   -0.000000
    6.803073  -12.025810  -12.025810  -12.025810   -0.000000    0.000000   -0.000000
    6.833717  -11.860349  -11.860349  -11.860349   -0.000000    0.000000   -0.000000
    6.864362  -11.701787  -11.701787  -11.701787   -0.000000    0.000000    0.000000
    6.895006  -11.548922  -11.548922  -11.548922   -0.000000    0.000000    0.000000
    6.925651  -11.400402  -11.400402  -11.400402   -0.000000    0.000000    0.000000
    6.956295  -11.254778  -11.254778  -11.254778   -0.000000    0.000000    0.000000
    6.986940  -11.110585  -11.110585  -11.110585   -0.000000    0.000000    0.000000
    7.017584  -10.966396  -10.966396  -10.966396   -0.000000    0.000000    0.000000
    7.048229  -10.821039  -10.821039  -10.821039   -0.000000    0.000000    0.000000
    7.078873  -10.673705  -10.673705  -10.673705   -0.000000    0.000000    0.000000
