      #Energy        TDOS-UP        TDOS-DOWN
     -22.01378       0.00000       0.00000
     -21.90178       0.00000       0.00000
     -21.78978       0.00000       0.00000
     -21.67778       0.00000       0.00000
     -21.56578       0.00000       0.00000
     -21.45378       0.00000       0.00000
     -21.34078       0.00000       0.00000
     -21.22878       0.00000       0.00000
     -21.11678       0.00000       0.00000
     -21.00478       0.00000       0.00000
     -20.89278       0.00000       0.00000
     -20.78078       0.00000       0.00000
     -20.66778       0.00000       0.00000
     -20.55578       0.00000       0.00000
     -20.44378       0.00000       0.00000
     -20.33178       0.00000       0.00000
     -20.21978       0.00000       0.00000
     -20.10678       0.00000       0.00000
     -19.99478       0.05108      -0.05108
     -19.88278       0.15450      -0.15450
     -19.77078       0.22610      -0.22610
     -19.65878       0.29470      -0.29470
     -19.54678       0.36790      -0.36790
     -19.43378       0.44810      -0.44810
     -19.32178       0.53330      -0.53330
     -19.20978       0.64860      -0.64860
     -19.09778       0.79430      -0.79430
     -18.98578       0.99630      -0.99630
     -18.87378       1.28900      -1.28900
     -18.76078       1.80800      -1.80800
     -18.64878       3.11200      -3.11200
     -18.53678       6.17600      -6.17600
     -18.42478       0.00000       0.00000
     -18.31278       0.00000       0.00000
     -18.19978       0.00000       0.00000
     -18.08778       0.00000       0.00000
     -17.97578       0.00000       0.00000
     -17.86378       0.00000       0.00000
     -17.75178       0.00000       0.00000
     -17.63978       0.00000       0.00000
     -17.52678       0.00000       0.00000
     -17.41478       0.00000       0.00000
     -17.30278       0.00000       0.00000
     -17.19078       0.00000       0.00000
     -17.07878       0.00000       0.00000
     -16.96678       0.00000       0.00000
     -16.85378       0.00000       0.00000
     -16.74178       0.00000       0.00000
     -16.62978       0.00000       0.00000
     -16.51778       0.00000       0.00000
     -16.40578       0.00000       0.00000
     -16.29378       0.00000       0.00000
     -16.18078       0.00000       0.00000
     -16.06878       0.00000       0.00000
     -15.95678       0.00000       0.00000
     -15.84478       0.00000       0.00000
     -15.73278       0.00000       0.00000
     -15.61978       0.00000       0.00000
     -15.50778       0.00000       0.00000
     -15.39578       0.00000       0.00000
     -15.28378       0.00000       0.00000
     -15.17178       0.00000       0.00000
     -15.05978       0.00000       0.00000
     -14.94678       0.00000       0.00000
     -14.83478       0.00000       0.00000
     -14.72278       0.00000       0.00000
     -14.61078       0.00000       0.00000
     -14.49878       0.00000       0.00000
     -14.38678       0.00000       0.00000
     -14.27378       0.00000       0.00000
     -14.16178       0.00000       0.00000
     -14.04978       0.00000       0.00000
     -13.93778       0.00000       0.00000
     -13.82578       0.00000       0.00000
     -13.71378       0.00000       0.00000
     -13.60078       0.00000       0.00000
     -13.48878       0.00000       0.00000
     -13.37678       0.00000       0.00000
     -13.26478       0.00000       0.00000
     -13.15278       0.00000       0.00000
     -13.03978       0.00000       0.00000
     -12.92778       0.00000       0.00000
     -12.81578       0.00000       0.00000
     -12.70378       0.00000       0.00000
     -12.59178       0.00000       0.00000
     -12.47978       0.00000       0.00000
     -12.36678       0.00000       0.00000
     -12.25478       0.00000       0.00000
     -12.14278       0.00000       0.00000
     -12.03078       0.00000       0.00000
     -11.91878       0.00000       0.00000
     -11.80678       0.00000       0.00000
     -11.69378       0.00000       0.00000
     -11.58178       0.00000       0.00000
     -11.46978       0.00000       0.00000
     -11.35778       0.00000       0.00000
     -11.24578       0.00000       0.00000
     -11.13378       0.00000       0.00000
     -11.02078       0.00000       0.00000
     -10.90878       0.00000       0.00000
     -10.79678       0.00000       0.00000
     -10.68478       0.00000       0.00000
     -10.57278       0.00000       0.00000
     -10.45978       0.00000       0.00000
     -10.34778       0.00000       0.00000
     -10.23578       0.00000       0.00000
     -10.12378       0.00000       0.00000
     -10.01178       0.00000       0.00000
      -9.89978       0.00000       0.00000
      -9.78678       0.00000       0.00000
      -9.67478       0.00000       0.00000
      -9.56278       0.00000       0.00000
      -9.45078       0.00000       0.00000
      -9.33878       0.00000       0.00000
      -9.22678       0.00000       0.00000
      -9.11378       0.00000       0.00000
      -9.00178       0.00000       0.00000
      -8.88978       0.00000       0.00000
      -8.77778       0.00000       0.00000
      -8.66578       0.00000       0.00000
      -8.55378       0.00000       0.00000
      -8.44078       0.00000       0.00000
      -8.32878       0.00000       0.00000
      -8.21678       0.00000       0.00000
      -8.10478       0.00000       0.00000
      -7.99278       0.00000       0.00000
      -7.87978       0.00000       0.00000
      -7.76778       0.16710      -0.16710
      -7.65578       0.27020      -0.27020
      -7.54378       0.35480      -0.35480
      -7.43178       0.44340      -0.44340
      -7.31978       0.53430      -0.53430
      -7.20678       0.64270      -0.64270
      -7.09478       0.78460      -0.78460
      -6.98278       0.98460      -0.98460
      -6.87078       1.53000      -1.53000
      -6.75878       1.74000      -1.74000
      -6.64678       2.23800      -2.23800
      -6.53378       2.15000      -2.15000
      -6.42178       1.31900      -1.31900
      -6.30978       1.03700      -1.03700
      -6.19778       0.77000      -0.77000
      -6.08578       0.44680      -0.44680
      -5.97278       0.43150      -0.43150
      -5.86078       0.62100      -0.62100
      -5.74878       1.08400      -1.08400
      -5.63678       1.34700      -1.34700
      -5.52478       1.58300      -1.58300
      -5.41278       1.70200      -1.70200
      -5.29978       1.77300      -1.77300
      -5.18778       2.34000      -2.34000
      -5.07578       4.61500      -4.61500
      -4.96378       3.90900      -3.90900
      -4.85178       2.81000      -2.81000
      -4.73978       2.18500      -2.18500
      -4.62678       1.80100      -1.80100
      -4.51478       1.73900      -1.73900
      -4.40278       1.55400      -1.55400
      -4.29078       1.64100      -1.64100
      -4.17878       1.47900      -1.47900
      -4.06678       1.40800      -1.40800
      -3.95378       0.86540      -0.86540
      -3.84178       0.60810      -0.60810
      -3.72978       0.46350      -0.46350
      -3.61778       0.36020      -0.36020
      -3.50578       0.28270      -0.28270
      -3.39278       0.21770      -0.21770
      -3.28078       0.16600      -0.16600
      -3.16878       0.12440      -0.12440
      -3.05678       0.08994      -0.08994
      -2.94478       0.09279      -0.09279
      -2.83278       0.16820      -0.16820
      -2.71978       0.23770      -0.23770
      -2.60778       0.35410      -0.35410
      -2.49578       0.52800      -0.52800
      -2.38378       0.78270      -0.78270
      -2.27178       1.27200      -1.27200
      -2.15978       2.39100      -2.39100
      -2.04678       1.94400      -1.94400
      -1.93478       1.93600      -1.93600
      -1.82278       2.08200      -2.08200
      -1.71078       2.53800      -2.53800
      -1.59878       7.02800      -7.02800
      -1.48678       6.54600      -6.54600
      -1.37378       1.80600      -1.80600
      -1.26178       0.61660      -0.61660
      -1.14978       2.49900      -2.49900
      -1.03778       4.87600      -4.87600
      -0.92578       5.48400      -5.48400
      -0.81278       2.96600      -2.96600
      -0.70078       3.32600      -3.32600
      -0.58878       3.94100      -3.94100
      -0.47678       5.40900      -5.40900
      -0.36478       5.59100      -5.59100
      -0.25278       6.03500      -6.03500
      -0.13978       0.70370      -0.70370
      -0.02778       0.00000       0.00000
       0.08422       0.00000       0.00000
       0.19622       0.00000       0.00000
       0.30822       0.00000       0.00000
       0.42022       0.08635      -0.08635
       0.53322       0.27660      -0.27660
       0.64522       0.45080      -0.45080
       0.75722       1.34700      -1.34700
       0.86922       2.40000      -2.40000
       0.98122       2.87300      -2.87300
       1.09322       1.83200      -1.83200
       1.20622       2.50900      -2.50900
       1.31822       1.86000      -1.86000
       1.43022       1.72300      -1.72300
       1.54222       1.63700      -1.63700
       1.65422       1.02900      -1.02900
       1.76722       0.00000       0.00000
       1.87922       0.00000       0.00000
       1.99122       0.00000       0.00000
       2.10322       0.00468      -0.00468
       2.21522       0.01046      -0.01046
       2.32722       0.01401      -0.01401
       2.44022       0.01752      -0.01752
       2.55222       0.02112      -0.02112
       2.66422       0.02396      -0.02396
       2.77622       0.02715      -0.02715
       2.88822       0.03048      -0.03048
       3.00022       0.03395      -0.03395
       3.11322       0.03749      -0.03749
       3.22522       0.04115      -0.04115
       3.33722       0.04491      -0.04491
       3.44922       0.04878      -0.04878
       3.56122       0.05287      -0.05287
       3.67322       0.05727      -0.05727
       3.78622       0.06199      -0.06199
       3.89822       0.06699      -0.06699
       4.01022       0.07212      -0.07212
       4.12222       0.07735      -0.07735
       4.23422       0.08293      -0.08293
       4.34722       0.08933      -0.08933
       4.45922       0.09606      -0.09606
       4.57122       0.10390      -0.10390
       4.68322       0.11140      -0.11140
       4.79522       0.11680      -0.11680
       4.90722       0.12680      -0.12680
       5.02022       0.13500      -0.13500
       5.13222       0.14590      -0.14590
       5.24422       0.15820      -0.15820
       5.35622       0.17030      -0.17030
       5.46822       0.18270      -0.18270
       5.58022       0.19860      -0.19860
       5.69322       0.21840      -0.21840
       5.80522       0.23900      -0.23900
       5.91722       0.26830      -0.26830
       6.02922       0.34300      -0.34300
       6.14122       0.37720      -0.37720
       6.25322       0.38000      -0.38000
       6.36622       0.39050      -0.39050
       6.47822       0.40080      -0.40080
       6.59022       0.40580      -0.40580
       6.70222       0.42650      -0.42650
       6.81422       0.52400      -0.52400
       6.92722       0.61770      -0.61770
       7.03922       0.67050      -0.67050
       7.15122       0.66110      -0.66110
       7.26322       0.64210      -0.64210
       7.37522       0.63100      -0.63090
       7.48722       0.61660      -0.61660
       7.60022       0.60400      -0.60400
       7.71222       0.58530      -0.58530
       7.82422       0.56900      -0.56900
       7.93622       0.53810      -0.53810
       8.04822       0.52760      -0.52760
       8.16022       0.51610      -0.51600
       8.27322       0.50290      -0.50310
       8.38522       0.47080      -0.47080
       8.49722       0.45340      -0.45340
       8.60922       0.43760      -0.43750
       8.72122       0.42240      -0.42210
       8.83422       0.41780      -0.41820
       8.94622       0.40500      -0.40580
       9.05822       0.44110      -0.44240
       9.17022       0.36220      -0.36420
       9.28222       0.21010      -0.20930
       9.39422       0.06299      -0.06286
       9.50722       0.01084      -0.01249
       9.61922       0.00059       0.00000
       9.73122       0.00000       0.00000
       9.84322       0.00000       0.00000
       9.95522       0.00000       0.00000
      10.06722       0.00000       0.00000
      10.18022       0.00000       0.00000
      10.29222       0.00000       0.00000
      10.40422       0.00000       0.00000
      10.51622       0.00000       0.00000
      10.62822       0.00000       0.00000
      10.74022       0.00000       0.00000
      10.85322       0.00000       0.00000
      10.96522       0.00000       0.00000
      11.07722       0.00000       0.00000
      11.18922       0.00000       0.00000
      11.30122       0.00000       0.00000
      11.41422       0.00000       0.00000
      11.52622       0.00000       0.00000
      11.63822       0.00000       0.00000
