#  frequency dependent      REAL DIELECTRIC FUNCTION (independent particle, no local field effects)
#     E(ev)      X         Y         Z        XY        YZ        ZX
#  --------------------------------------------------------------------------------------
    0.000000   83.662043   85.047406  115.417144    0.000890   -0.000984    0.000441
    0.011980   83.551067   84.914697  115.320215    0.000887   -0.000978    0.000437
    0.023960   83.219048   84.518194  115.030137    0.000878   -0.000958    0.000424
    0.035940   82.669011   83.862752  114.549106    0.000864   -0.000926    0.000403
    0.047921   81.905901   82.956431  113.880406    0.000844   -0.000882    0.000375
    0.059901   80.936666   81.810194  113.029156    0.000821   -0.000826    0.000339
    0.071881   79.770148   80.437961  112.001670    0.000795   -0.000760    0.000297
    0.083861   78.417094   78.856222  110.805874    0.000767   -0.000685    0.000248
    0.095841   76.889949   77.083732  109.451166    0.000740   -0.000603    0.000194
    0.107821   75.202821   75.141449  107.948496    0.000713   -0.000514    0.000135
    0.119801   73.371499   73.051807  106.310361    0.000690   -0.000420    0.000072
    0.131781   71.412875   70.838587  104.550510    0.000670   -0.000323    0.000007
    0.143762   69.345257   68.526472  102.684167    0.000656   -0.000224   -0.000061
    0.155742   67.187562   66.140234  100.727681    0.000649   -0.000125   -0.000130
    0.167722   64.959565   63.705100   98.698457    0.000649   -0.000027   -0.000198
    0.179702   62.681212   61.245418   96.614483    0.000658    0.000069   -0.000266
    0.191682   60.372411   58.784767   94.494416    0.000676    0.000161   -0.000333
    0.203662   58.052893   56.345402   92.357069    0.000702    0.000248   -0.000397
    0.215642   55.741564   53.948007   90.221182    0.000738    0.000330   -0.000457
    0.227622   53.456370   51.611228   88.105047    0.000782    0.000406   -0.000514
    0.239603   51.214192   49.351551   86.026227    0.000834    0.000474   -0.000567
    0.251583   49.030154   47.183109   84.001390    0.000894    0.000536   -0.000615
    0.263563   46.917933   45.117583   82.045849    0.000960    0.000590   -0.000659
    0.275543   44.889197   43.164017   80.173511    0.001032    0.000637   -0.000697
    0.287523   42.953751   41.329220   78.396604    0.001108    0.000676   -0.000730
    0.299503   41.119398   39.617443   76.725638    0.001187    0.000709   -0.000758
    0.311483   39.392039   38.030844   75.169186    0.001267    0.000735   -0.000781
    0.323463   37.775667   36.569499   73.734203    0.001348    0.000755   -0.000799
    0.335444   36.272583   35.231829   72.425480    0.001428    0.000770   -0.000812
    0.347424   34.883466   34.014709   71.246419    0.001506    0.000780   -0.000821
    0.359404   33.607581   32.913812   70.198503    0.001581    0.000786   -0.000826
    0.371384   32.443059   31.923916   69.281904    0.001653    0.000789   -0.000827
    0.383364   31.387028   31.039200   68.495354    0.001721    0.000788   -0.000825
    0.395344   30.435890   30.253375   67.836382    0.001784    0.000786   -0.000820
    0.407324   29.585472   29.560007   67.301405    0.001842    0.000781   -0.000812
    0.419304   28.831221   28.952740   66.885768    0.001895    0.000776   -0.000802
    0.431285   28.168369   28.425337   66.584018    0.001942    0.000770   -0.000790
    0.443265   27.592092   27.971893   66.389825    0.001984    0.000763   -0.000777
    0.455245   27.097520   27.586834   66.296003    0.002021    0.000757   -0.000762
    0.467225   26.679883   27.264958   66.294707    0.002053    0.000751   -0.000745
    0.479205   26.334550   27.001545   66.376903    0.002081    0.000746   -0.000729
    0.491185   26.056945   26.792192   66.532947    0.002104    0.000741   -0.000711
    0.503165   25.842661   26.632864   66.752232    0.002123    0.000737   -0.000693
    0.515145   25.687388   26.519765   67.023109    0.002139    0.000734   -0.000674
    0.527126   25.586873   26.449354   67.332947    0.002151    0.000732   -0.000655
    0.539106   25.536893   26.418226   67.668183    0.002160    0.000732   -0.000636
    0.551086   25.533233   26.423094   68.014308    0.002166    0.000732   -0.000617
    0.563066   25.571698   26.460677   68.355979    0.002170    0.000733   -0.000598
    0.575046   25.648044   26.527742   68.677101    0.002171    0.000735   -0.000580
    0.587026   25.758025   26.621007   68.961221    0.002170    0.000738   -0.000561
    0.599006   25.897378   26.737211   69.191477    0.002167    0.000742   -0.000543
    0.610986   26.061864   26.873039   69.351051    0.002162    0.000747   -0.000525
    0.622967   26.247311   27.025286   69.423521    0.002155    0.000753   -0.000508
    0.634947   26.449663   27.190680   69.393252    0.002146    0.000759   -0.000491
    0.646927   26.665002   27.366164   69.245453    0.002135    0.000767   -0.000475
    0.658907   26.889642   27.548754   68.966971    0.002123    0.000775   -0.000459
    0.670887   27.120125   27.735705   68.546336    0.002110    0.000785   -0.000444
    0.682867   27.353364   27.924509   67.974074    0.002095    0.000795   -0.000430
    0.694847   27.586573   28.112993   67.243109    0.002080    0.000806   -0.000416
    0.706827   27.817376   28.299229   66.348854    0.002063    0.000818   -0.000403
    0.718808   28.043804   28.481737   65.289327    0.002047    0.000831   -0.000392
    0.730788   28.264284   28.659373   64.065302    0.002030    0.000844   -0.000381
    0.742768   28.477663   28.831352   62.680117    0.002013    0.000859   -0.000371
    0.754748   28.683180   28.997264   61.139797    0.001997    0.000874   -0.000363
    0.766728   28.880453   29.157080   59.452647    0.001982    0.000890   -0.000355
    0.778708   29.069394   29.311035   57.629197    0.001968    0.000906   -0.000349
    0.790688   29.250233   29.459662   55.681894    0.001957    0.000923   -0.000344
    0.802668   29.423399   29.603690   53.624677    0.001947    0.000941   -0.000340
    0.814649   29.589591   29.744050   51.472684    0.001940    0.000958   -0.000338
    0.826629   29.749556   29.881796   49.241950    0.001936    0.000976   -0.000337
    0.838609   29.904188   30.018007   46.949047    0.001935    0.000995   -0.000337
    0.850589   30.054371   30.153807   44.610618    0.001938    0.001013   -0.000338
    0.862569   30.201060   30.290263   42.243216    0.001944    0.001032   -0.000341
    0.874549   30.345078   30.428342   39.862930    0.001955    0.001050   -0.000345
    0.886529   30.487254   30.568903   37.485145    0.001969    0.001069   -0.000350
    0.898509   30.628279   30.712628   35.124432    0.001988    0.001087   -0.000355
    0.910490   30.768745   30.859983   32.794230    0.002010    0.001106   -0.000361
    0.922470   30.909083   31.011271   30.506987    0.002036    0.001125   -0.000368
    0.934450   31.049616   31.166518   28.273835    0.002066    0.001144   -0.000375
    0.946430   31.190519   31.325522   26.104685    0.002098    0.001162   -0.000382
    0.958410   31.331764   31.487849   24.008315    0.002133    0.001181   -0.000388
    0.970390   31.473262   31.652832   21.992254    0.002170    0.001200   -0.000394
    0.982370   31.614707   31.819584   20.062888    0.002209    0.001219   -0.000399
    0.994350   31.755706   31.987045   18.225581    0.002248    0.001237   -0.000402
    1.006331   31.895736   32.153941   16.484684    0.002289    0.001256   -0.000404
    1.018311   32.034149   32.318893   14.843650    0.002329    0.001275   -0.000403
    1.030291   32.170181   32.480381   13.305111    0.002369    0.001293   -0.000400
    1.042271   32.303051   32.636924   11.870915    0.002409    0.001311   -0.000394
    1.054251   32.431835   32.786878   10.542262    0.002447    0.001328   -0.000384
    1.066231   32.555636   32.928745    9.319696    0.002485    0.001345   -0.000371
    1.078211   32.673478   33.061070    8.203178    0.002522    0.001360   -0.000354
    1.090191   32.784428   33.182477    7.192165    0.002558    0.001375   -0.000333
    1.102172   32.887542   33.291784    6.285569    0.002594    0.001388   -0.000307
    1.114152   32.981954   33.388087    5.481846    0.002630    0.001400   -0.000277
    1.126132   33.066861   33.470574    4.778946    0.002667    0.001410   -0.000244
    1.138112   33.141610   33.538761    4.174431    0.002704    0.001418   -0.000206
    1.150092   33.205599   33.592484    3.665398    0.002743    0.001425   -0.000164
    1.162072   33.258436   33.631783    3.248516    0.002784    0.001428   -0.000118
    1.174052   33.299910   33.657084    2.920063    0.002827    0.001430   -0.000070
    1.186032   33.329978   33.669008    2.675942    0.002873    0.001429   -0.000020
    1.198013   33.348851   33.668454    2.511692    0.002920    0.001425    0.000032
    1.209993   33.356832   33.656589    2.422496    0.002969    0.001419    0.000085
    1.221973   33.354556   33.634699    2.403308    0.003020    0.001411    0.000137
    1.233953   33.342863   33.604296    2.448745    0.003070    0.001400    0.000188
    1.245933   33.322694   33.566952    2.553278    0.003119    0.001387    0.000237
    1.257913   33.295195   33.524304    2.711174    0.003165    0.001372    0.000281
    1.269893   33.261694   33.478022    2.916625    0.003205    0.001356    0.000321
    1.281873   33.223575   33.429662    3.163732    0.003236    0.001338    0.000355
    1.293854   33.182339   33.380665    3.446621    0.003257    0.001319    0.000381
    1.305834   33.139472   33.332462    3.759466    0.003262    0.001299    0.000399
    1.317814   33.096486   33.286183    4.096530    0.003250    0.001278    0.000406
    1.329794   33.054769   33.242810    4.452207    0.003216    0.001256    0.000403
    1.341774   33.015652   33.203026    4.821137    0.003158    0.001234    0.000389
    1.353754   32.980315   33.167369    5.198121    0.003071    0.001212    0.000363
    1.365734   32.949733   33.136057    5.578265    0.002954    0.001189    0.000324
    1.377714   32.924619   33.109047    5.956937    0.002804    0.001165    0.000272
    1.389695   32.905436   33.086073    6.329808    0.002619    0.001142    0.000208
    1.401675   32.892417   33.066682    6.692905    0.002398    0.001117    0.000132
    1.413655   32.885435   33.050133    7.042519    0.002142    0.001091    0.000045
    1.425635   32.883997   33.035553    7.375335    0.001852    0.001065   -0.000052
    1.437615   32.887431   33.021864    7.688348    0.001528    0.001037   -0.000158
    1.449595   32.894640   33.007850    7.978909    0.001174    0.001007   -0.000271
    1.461575   32.904286   32.992254    8.244705    0.000794    0.000975   -0.000389
    1.473555   32.914772   32.973634    8.483717    0.000392    0.000942   -0.000509
    1.485536   32.924216   32.950605    8.694314   -0.000027    0.000906   -0.000629
    1.497516   32.930510   32.921669    8.875151   -0.000456    0.000868   -0.000748
    1.509496   32.931497   32.885360    9.025204   -0.000890    0.000827   -0.000861
    1.521476   32.924775   32.840191    9.143762   -0.001321    0.000785   -0.000967
    1.533456   32.907987   32.784745    9.230410   -0.001743    0.000742   -0.001062
    1.545436   32.878657   32.717586    9.285030   -0.002150    0.000697   -0.001145
    1.557416   32.834445   32.637493    9.307772   -0.002536    0.000652   -0.001213
    1.569396   32.773051   32.543130    9.299053   -0.002895    0.000607   -0.001264
    1.581377   32.692355   32.433302    9.259540   -0.003222    0.000564   -0.001298
    1.593357   32.590418   32.307039    9.190141   -0.003515    0.000521   -0.001312
    1.605337   32.465537   32.163314    9.091955   -0.003770    0.000482   -0.001306
    1.617317   32.316316   32.001275    8.966268   -0.003986    0.000445   -0.001280
    1.629297   32.141633   31.820187    8.814533   -0.004162    0.000413   -0.001235
    1.641277   31.940702   31.619444    8.638328   -0.004299    0.000385   -0.001170
    1.653257   31.713111   31.398554    8.439295   -0.004398    0.000362   -0.001088
    1.665237   31.458768   31.157204    8.219173   -0.004462    0.000344   -0.000990
    1.677218   31.177923   30.895134    7.979695   -0.004493    0.000330   -0.000878
    1.689198   30.871099   30.612273    7.722612   -0.004496    0.000322   -0.000755
    1.701178   30.539165   30.308637    7.449587   -0.004475    0.000317   -0.000622
    1.713158   30.183188   29.984389    7.162230   -0.004432    0.000316   -0.000484
    1.725138   29.804418   29.639794    6.862035   -0.004374    0.000317   -0.000342
    1.737118   29.404288   29.275161    6.550370   -0.004303    0.000319   -0.000200
    1.749098   28.984200   28.890915    6.228410   -0.004223    0.000320   -0.000060
    1.761078   28.545699   28.487504    5.897207   -0.004138    0.000320    0.000075
    1.773059   28.090155   28.065431    5.557603   -0.004050    0.000315    0.000202
    1.785039   27.618898   27.625147    5.210273   -0.003960    0.000305    0.000319
    1.797019   27.133053   27.167106    4.855704   -0.003871    0.000289    0.000424
    1.808999   26.633545   26.691714    4.494229   -0.003782    0.000264    0.000516
    1.820979   26.121002   26.199292    4.126024   -0.003694    0.000229    0.000592
    1.832959   25.595796   25.690058    3.751130   -0.003606    0.000183    0.000653
    1.844939   25.058018   25.164097    3.369495   -0.003518    0.000126    0.000697
    1.856919   24.507400   24.621385    2.980965   -0.003429    0.000057    0.000724
    1.868900   23.943422   24.061699    2.585360   -0.003336   -0.000024    0.000734
    1.880880   23.365300   23.484748    2.182447   -0.003239   -0.000117    0.000727
    1.892860   22.771975   22.890027    1.772015   -0.003135   -0.000221    0.000704
    1.904840   22.162270   22.276955    1.353858   -0.003024   -0.000335    0.000665
    1.916820   21.534818   21.644805    0.927829   -0.002905   -0.000458    0.000612
    1.928800   20.888214   20.992812    0.493863   -0.002777   -0.000590    0.000545
    1.940780   20.221067   20.320148    0.051946   -0.002639   -0.000727    0.000466
    1.952760   19.532057   19.625994   -0.397806   -0.002491   -0.000868    0.000375
    1.964741   18.820001   18.909616   -0.855170   -0.002334   -0.001011    0.000275
    1.976721   18.083979   18.170348   -1.319807   -0.002168   -0.001155    0.000166
    1.988701   17.323306   17.407717   -1.791234   -0.001994   -0.001297    0.000050
    2.000681   16.537680   16.621456   -2.268830   -0.001815   -0.001436   -0.000071
    2.012661   15.727210   15.811605   -2.751802   -0.001630   -0.001569   -0.000197
    2.024641   14.892423   14.978496   -3.239222   -0.001443   -0.001695   -0.000325
    2.036621   14.034311   14.122870   -3.730005   -0.001255   -0.001812   -0.000455
    2.048601   13.154378   13.245817   -4.222852   -0.001068   -0.001920   -0.000584
    2.060582   12.254595   12.348903   -4.716348   -0.000885   -0.002017   -0.000713
    2.072562   11.337433   11.434091   -5.208885   -0.000706   -0.002103   -0.000838
    2.084542   10.405791   10.503791   -5.698692   -0.000534   -0.002176   -0.000959
    2.096522    9.462997    9.560842   -6.183855   -0.000370   -0.002236   -0.001074
    2.108502    8.512735    8.608443   -6.662310   -0.000217   -0.002283   -0.001182
    2.120482    7.558978    7.650161   -7.131903   -0.000074   -0.002318   -0.001282
    2.132462    6.605929    6.689829   -7.590379    0.000058   -0.002339   -0.001372
    2.144442    5.657927    5.731505   -8.035419    0.000177   -0.002348   -0.001451
    2.156423    4.719389    4.779392   -8.464706    0.000284   -0.002345   -0.001518
    2.168403    3.794656    3.837766   -8.875935    0.000378   -0.002330   -0.001572
    2.180383    2.887975    2.910885   -9.266879    0.000460   -0.002304   -0.001612
    2.192363    2.003399    2.002893   -9.635453    0.000529   -0.002268   -0.001637
    2.204343    1.144666    1.117762   -9.979706    0.000587   -0.002222   -0.001646
    2.216323    0.315164    0.259215  -10.297916    0.000634   -0.002167   -0.001640
    2.228303   -0.482127   -0.569371  -10.588622    0.000671   -0.002105   -0.001618
    2.240283   -1.244732   -1.365005  -10.850638    0.000699   -0.002035   -0.001580
    2.252264   -1.970623   -2.125112  -11.083111    0.000718   -0.001959   -0.001527
    2.264244   -2.658376   -2.847612  -11.285516    0.000729   -0.001878   -0.001459
    2.276224   -3.307049   -3.530908  -11.457668    0.000732   -0.001793   -0.001377
    2.288204   -3.916255   -4.173921  -11.599748    0.000729   -0.001705   -0.001282
    2.300184   -4.486117   -4.776068  -11.712225    0.000720   -0.001614   -0.001176
    2.312164   -5.017237   -5.337275  -11.795950    0.000705   -0.001521   -0.001060
    2.324144   -5.510654   -5.857935  -11.851990    0.000685   -0.001427   -0.000936
    2.336124   -5.967799   -6.338865  -11.881692    0.000659   -0.001334   -0.000806
    2.348105   -6.390436   -6.781287  -11.886598    0.000629   -0.001240   -0.000671
    2.360085   -6.780600   -7.186780  -11.868376    0.000595   -0.001148   -0.000535
    2.372065   -7.140516   -7.557202  -11.828805    0.000555   -0.001056   -0.000397
    2.384045   -7.472580   -7.894688  -11.769723    0.000512   -0.000966   -0.000261
    2.396025   -7.779249   -8.201494  -11.692958    0.000465   -0.000878   -0.000129
    2.408005   -8.063007   -8.480082  -11.600281    0.000413   -0.000792   -0.000000
    2.419985   -8.326333   -8.732928  -11.493377    0.000359   -0.000708    0.000122
    2.431965   -8.571581   -8.962611  -11.373814    0.000301   -0.000625    0.000237
    2.443946   -8.801040   -9.171616  -11.242991    0.000241   -0.000543    0.000345
    2.455926   -9.016821   -9.362395  -11.102177    0.000179   -0.000463    0.000443
    2.467906   -9.220872   -9.537336  -10.952409    0.000116   -0.000385    0.000533
    2.479886   -9.414937   -9.698653  -10.794600    0.000052   -0.000307    0.000614
    2.491866   -9.600558   -9.848417  -10.629465   -0.000011   -0.000229    0.000686
    2.503846   -9.779032   -9.988541  -10.457570   -0.000074   -0.000152    0.000749
    2.515826   -9.951488  -10.120726  -10.279339   -0.000134   -0.000075    0.000805
    2.527806  -10.118804  -10.246501  -10.095108   -0.000192    0.000002    0.000852
    2.539787  -10.281644  -10.367146   -9.905107   -0.000246    0.000079    0.000893
    2.551767  -10.440475  -10.483789   -9.709536   -0.000296    0.000155    0.000929
    2.563747  -10.595603  -10.597280   -9.508561   -0.000341    0.000232    0.000959
    2.575727  -10.747109  -10.708329   -9.302365   -0.000379    0.000308    0.000986
    2.587707  -10.894945  -10.817415   -9.091169   -0.000412    0.000384    0.001010
    2.599687  -11.038924  -10.924836   -8.875264   -0.000437    0.000459    0.001032
    2.611667  -11.178687  -11.030754   -8.654983   -0.000456    0.000532    0.001054
    2.623647  -11.313839  -11.135126   -8.430807   -0.000467    0.000604    0.001075
    2.635628  -11.443831  -11.237832   -8.203278   -0.000471    0.000674    0.001097
    2.647608  -11.568094  -11.338594   -7.973018   -0.000467    0.000741    0.001120
    2.659588  -11.686018  -11.437058   -7.740806   -0.000456    0.000806    0.001145
    2.671568  -11.796963  -11.532790   -7.507468   -0.000438    0.000867    0.001173
    2.683548  -11.900325  -11.625340   -7.273898   -0.000415    0.000925    0.001203
    2.695528  -11.995512  -11.714198   -7.041077   -0.000385    0.000978    0.001235
    2.707508  -12.082021  -11.798905   -6.810001   -0.000350    0.001028    0.001270
    2.719488  -12.159402  -11.878975   -6.581686   -0.000312    0.001072    0.001307
    2.731469  -12.227357  -11.954018   -6.357170   -0.000270    0.001112    0.001347
    2.743449  -12.285699  -12.023716   -6.137422   -0.000226    0.001147    0.001387
    2.755429  -12.334405  -12.087814   -5.923402   -0.000181    0.001177    0.001429
    2.767409  -12.373621  -12.146222   -5.716007   -0.000136    0.001202    0.001471
