  #energy          xx             yy              zz              xy              yz              zx
  0.00000000E+00  0.64463468E+00  0.64697212E+00  0.68838413E+00  0.88688849E+00  0.10000000E+01  0.92310650E+00
  0.12000000E-01  0.64458453E+00  0.64690877E+00  0.68834686E+00  0.88688849E+00  0.99370951E+00  0.92254087E+00
  0.24000000E-01  0.64443306E+00  0.64671834E+00  0.68823473E+00  0.88688849E+00  0.98750444E+00  0.92096198E+00
  0.35900000E-01  0.64417978E+00  0.64639992E+00  0.68804738E+00  0.88688849E+00  0.97430088E+00  0.92096198E+00
  0.47900000E-01  0.64382279E+00  0.64595165E+00  0.68778354E+00  0.89300128E+00  0.96834733E+00  0.91863969E+00
  0.59900000E-01  0.64335990E+00  0.64537158E+00  0.68744215E+00  0.89300128E+00  0.96082272E+00  0.92311389E+00
  0.71900000E-01  0.64278800E+00  0.64465666E+00  0.68702136E+00  0.89300128E+00  0.95520437E+00  0.92311389E+00
  0.83900000E-01  0.64210400E+00  0.64380325E+00  0.68651945E+00  0.89300128E+00  0.94757837E+00  0.92601873E+00
  0.95800000E-01  0.64130343E+00  0.64280746E+00  0.68593436E+00  0.89955529E+00  0.94504089E+00  0.92601873E+00
  0.10780000E+00  0.64038202E+00  0.64166501E+00  0.68526393E+00  0.89955529E+00  0.93702585E+00  0.92749861E+00
  0.11980000E+00  0.63933473E+00  0.64037106E+00  0.68450620E+00  0.89931417E+00  0.92909041E+00  0.92749861E+00
  0.13180000E+00  0.63815585E+00  0.63892023E+00  0.68365894E+00  0.89931417E+00  0.92578939E+00  0.93307642E+00
  0.14380000E+00  0.63684003E+00  0.63730729E+00  0.68272064E+00  0.89860881E+00  0.92224367E+00  0.93270151E+00
  0.15570000E+00  0.63538086E+00  0.63552650E+00  0.68168986E+00  0.90545787E+00  0.91429102E+00  0.93270151E+00
  0.16770000E+00  0.63377253E+00  0.63357304E+00  0.68056580E+00  0.90407120E+00  0.91048860E+00  0.93709694E+00
  0.17970000E+00  0.63200884E+00  0.63144150E+00  0.67934834E+00  0.89601929E+00  0.90652654E+00  0.94106850E+00
  0.19170000E+00  0.63008352E+00  0.62912721E+00  0.67803817E+00  0.89601929E+00  0.90243312E+00  0.94106850E+00
  0.20370000E+00  0.62799109E+00  0.62662629E+00  0.67663722E+00  0.89427464E+00  0.90243312E+00  0.94461621E+00
  0.21560000E+00  0.62572606E+00  0.62393571E+00  0.67514825E+00  0.89427464E+00  0.90151585E+00  0.95371819E+00
  0.22760000E+00  0.62328309E+00  0.62105346E+00  0.67357577E+00  0.88689915E+00  0.89700614E+00  0.95371819E+00
  0.23960000E+00  0.62065856E+00  0.61797952E+00  0.67192583E+00  0.88689915E+00  0.89246464E+00  0.95641909E+00
  0.25160000E+00  0.61784896E+00  0.61471489E+00  0.67020598E+00  0.88004403E+00  0.89528102E+00  0.96268396E+00
  0.26360000E+00  0.61485246E+00  0.61126323E+00  0.66842571E+00  0.87518415E+00  0.89048145E+00  0.96485628E+00
  0.27550000E+00  0.61166865E+00  0.60762970E+00  0.66659636E+00  0.87362292E+00  0.89302151E+00  0.96485628E+00
  0.28750000E+00  0.60829820E+00  0.60382298E+00  0.66473115E+00  0.86907236E+00  0.88800840E+00  0.97129018E+00
  0.29950000E+00  0.60474373E+00  0.59985324E+00  0.66284545E+00  0.86464631E+00  0.89021731E+00  0.97291163E+00
  0.31150000E+00  0.60100981E+00  0.59573343E+00  0.66095612E+00  0.86034231E+00  0.89021731E+00  0.97937128E+00
  0.32350000E+00  0.59710351E+00  0.59147967E+00  0.65908192E+00  0.86034231E+00  0.88689915E+00  0.97937128E+00
  0.33540000E+00  0.59303362E+00  0.58710988E+00  0.65724229E+00  0.85615660E+00  0.88689915E+00  0.98607464E+00
  0.34740000E+00  0.58881051E+00  0.58264398E+00  0.65545858E+00  0.85208468E+00  0.88689915E+00  0.98607464E+00
  0.35940000E+00  0.58444823E+00  0.57810378E+00  0.65375214E+00  0.84812167E+00  0.88858582E+00  0.99297311E+00
  0.37140000E+00  0.57996241E+00  0.57351290E+00  0.65214458E+00  0.84506906E+00  0.88858582E+00  0.99297311E+00
  0.38340000E+00  0.57537018E+00  0.56889530E+00  0.65065759E+00  0.84506906E+00  0.89007004E+00  0.99297311E+00
  0.39530000E+00  0.57069283E+00  0.56427661E+00  0.64931168E+00  0.84124752E+00  0.89007004E+00  0.10000000E+01
  0.40730000E+00  0.56595242E+00  0.55968100E+00  0.64812623E+00  0.84190932E+00  0.89007004E+00  0.10000000E+01
  0.41930000E+00  0.56117317E+00  0.55513378E+00  0.64711861E+00  0.83813894E+00  0.89007004E+00  0.10000000E+01
  0.43130000E+00  0.55638213E+00  0.55065988E+00  0.64630408E+00  0.83866711E+00  0.89130112E+00  0.99297311E+00
  0.44330000E+00  0.55160805E+00  0.54628324E+00  0.64569557E+00  0.83495859E+00  0.89130112E+00  0.99297311E+00
  0.45520000E+00  0.54688156E+00  0.54202692E+00  0.64530279E+00  0.83536500E+00  0.89130112E+00  0.99297311E+00
  0.46720000E+00  0.54223465E+00  0.53791372E+00  0.64513233E+00  0.83202302E+00  0.89130112E+00  0.98515237E+00
  0.47920000E+00  0.53770075E+00  0.53396542E+00  0.64518705E+00  0.83202302E+00  0.89748809E+00  0.98515237E+00
  0.49120000E+00  0.53331387E+00  0.53020318E+00  0.64546675E+00  0.83223677E+00  0.89748809E+00  0.98515237E+00
  0.50320000E+00  0.52910861E+00  0.52664656E+00  0.64596795E+00  0.83223677E+00  0.89748809E+00  0.98515237E+00
  0.51510000E+00  0.52511790E+00  0.52331414E+00  0.64668355E+00  0.83236577E+00  0.89748809E+00  0.98515237E+00
  0.52710000E+00  0.52137342E+00  0.52022096E+00  0.64760312E+00  0.82877820E+00  0.89748809E+00  0.97806512E+00
  0.53910000E+00  0.51790261E+00  0.51738194E+00  0.64871427E+00  0.82881824E+00  0.89748809E+00  0.97649295E+00
  0.55110000E+00  0.51473067E+00  0.51480799E+00  0.65000146E+00  0.82881824E+00  0.89748809E+00  0.97649295E+00
  0.56310000E+00  0.51187680E+00  0.51250691E+00  0.65144770E+00  0.82877820E+00  0.89748809E+00  0.97649295E+00
  0.57500000E+00  0.50935323E+00  0.51048156E+00  0.65303446E+00  0.82877820E+00  0.89748809E+00  0.97649295E+00
  0.58700000E+00  0.50716706E+00  0.50873204E+00  0.65474238E+00  0.82865839E+00  0.89748809E+00  0.97649295E+00
  0.59900000E+00  0.50531757E+00  0.50725320E+00  0.65655154E+00  0.82865839E+00  0.89860881E+00  0.97455983E+00
  0.61100000E+00  0.50379709E+00  0.50603661E+00  0.65844216E+00  0.82845976E+00  0.89860881E+00  0.97455983E+00
  0.62300000E+00  0.50259313E+00  0.50506958E+00  0.66039469E+00  0.82845976E+00  0.89222786E+00  0.97455983E+00
  0.63490000E+00  0.50168667E+00  0.50433555E+00  0.66239095E+00  0.83172634E+00  0.89222786E+00  0.97455983E+00
  0.64690000E+00  0.50105438E+00  0.50381592E+00  0.66441293E+00  0.83172634E+00  0.89222786E+00  0.97455983E+00
  0.65890000E+00  0.50067079E+00  0.50348999E+00  0.66644425E+00  0.83172634E+00  0.89222786E+00  0.97455983E+00
  0.67090000E+00  0.50050767E+00  0.50333541E+00  0.66847008E+00  0.83134922E+00  0.89222786E+00  0.97212389E+00
  0.68290000E+00  0.50053735E+00  0.50333072E+00  0.67047665E+00  0.83134922E+00  0.89222786E+00  0.97212389E+00
  0.69480000E+00  0.50073047E+00  0.50345372E+00  0.67245173E+00  0.83134922E+00  0.89222786E+00  0.97212389E+00
  0.70680000E+00  0.50106062E+00  0.50368303E+00  0.67438438E+00  0.83089468E+00  0.89222786E+00  0.97212389E+00
  0.71880000E+00  0.50150265E+00  0.50399986E+00  0.67626493E+00  0.83446940E+00  0.89222786E+00  0.97212389E+00
  0.73080000E+00  0.50203448E+00  0.50438658E+00  0.67808530E+00  0.83446940E+00  0.89222786E+00  0.97212389E+00
  0.74280000E+00  0.50263598E+00  0.50482823E+00  0.67983807E+00  0.83446940E+00  0.88624225E+00  0.97212389E+00
  0.75470000E+00  0.50328975E+00  0.50531143E+00  0.68151741E+00  0.83390153E+00  0.88624225E+00  0.97212389E+00
  0.76670000E+00  0.50398294E+00  0.50582657E+00  0.68311767E+00  0.83390153E+00  0.88624225E+00  0.97212389E+00
  0.77870000E+00  0.50470322E+00  0.50636504E+00  0.68463471E+00  0.83390153E+00  0.88624225E+00  0.96897275E+00
  0.79070000E+00  0.50544214E+00  0.50692291E+00  0.68606474E+00  0.83390153E+00  0.88624225E+00  0.96897275E+00
  0.80270000E+00  0.50619450E+00  0.50749502E+00  0.68740457E+00  0.83752689E+00  0.88624225E+00  0.96897275E+00
  0.81460000E+00  0.50695520E+00  0.50808112E+00  0.68865177E+00  0.83752689E+00  0.88059508E+00  0.96897275E+00
  0.82660000E+00  0.50772280E+00  0.50868100E+00  0.68980389E+00  0.83752689E+00  0.88059508E+00  0.96897275E+00
  0.83860000E+00  0.50849574E+00  0.50929649E+00  0.69085941E+00  0.83752689E+00  0.88059508E+00  0.96897275E+00
  0.85060000E+00  0.50927516E+00  0.50993049E+00  0.69181655E+00  0.83752689E+00  0.88059508E+00  0.96897275E+00
  0.86260000E+00  0.51006262E+00  0.51058695E+00  0.69267421E+00  0.83752689E+00  0.88059508E+00  0.96897275E+00
  0.87450000E+00  0.51085962E+00  0.51126927E+00  0.69343081E+00  0.83390153E+00  0.87524126E+00  0.96897275E+00
  0.88650000E+00  0.51166949E+00  0.51198302E+00  0.69408546E+00  0.83390153E+00  0.87559623E+00  0.96897275E+00
  0.89850000E+00  0.51249432E+00  0.51273133E+00  0.69463656E+00  0.83390153E+00  0.87559623E+00  0.97212389E+00
  0.91050000E+00  0.51333722E+00  0.51351930E+00  0.69508337E+00  0.83390153E+00  0.87559623E+00  0.97212389E+00
  0.92250000E+00  0.51420159E+00  0.51434972E+00  0.69542409E+00  0.83390153E+00  0.87559623E+00  0.97212389E+00
  0.93440000E+00  0.51508850E+00  0.51522550E+00  0.69565748E+00  0.83036622E+00  0.87559623E+00  0.97212389E+00
  0.94640000E+00  0.51600046E+00  0.51614876E+00  0.69578165E+00  0.83036622E+00  0.87045483E+00  0.97212389E+00
  0.95840000E+00  0.51693947E+00  0.51712005E+00  0.69579447E+00  0.82976771E+00  0.87055919E+00  0.97212389E+00
  0.97040000E+00  0.51790543E+00  0.51813950E+00  0.69569348E+00  0.82635671E+00  0.87055919E+00  0.97212389E+00
  0.98240000E+00  0.51889955E+00  0.51920587E+00  0.69547607E+00  0.82635671E+00  0.87055919E+00  0.97212389E+00
  0.99440000E+00  0.51992144E+00  0.52031652E+00  0.69513914E+00  0.82635671E+00  0.87055919E+00  0.97212389E+00
  0.10063000E+01  0.52097030E+00  0.52146841E+00  0.69467872E+00  0.82243900E+00  0.86564135E+00  0.96426356E+00
  0.10183000E+01  0.52204512E+00  0.52265759E+00  0.69409138E+00  0.82243900E+00  0.86554931E+00  0.96426356E+00
  0.10303000E+01  0.52314430E+00  0.52387805E+00  0.69337230E+00  0.81921280E+00  0.86554931E+00  0.96426356E+00
  0.10423000E+01  0.52426501E+00  0.52512447E+00  0.69251679E+00  0.81861056E+00  0.86554931E+00  0.96426356E+00
  0.10543000E+01  0.52540393E+00  0.52639095E+00  0.69151953E+00  0.81861056E+00  0.86554931E+00  0.96426356E+00
  0.10662000E+01  0.52655897E+00  0.52767026E+00  0.69037578E+00  0.81486847E+00  0.86527525E+00  0.95712118E+00
  0.10782000E+01  0.52772621E+00  0.52895668E+00  0.68907930E+00  0.81486847E+00  0.86060895E+00  0.95712118E+00
  0.10902000E+01  0.52890162E+00  0.53024215E+00  0.68762502E+00  0.81120961E+00  0.86060895E+00  0.95354301E+00
  0.11022000E+01  0.53008172E+00  0.53152068E+00  0.68600729E+00  0.81054075E+00  0.86020718E+00  0.95354301E+00
  0.11142000E+01  0.53126193E+00  0.53278653E+00  0.68422172E+00  0.81054075E+00  0.86020718E+00  0.94701240E+00
  0.11261000E+01  0.53243849E+00  0.53403384E+00  0.68226353E+00  0.80695776E+00  0.85965520E+00  0.94289675E+00
  0.11381000E+01  0.53360683E+00  0.53525689E+00  0.68012956E+00  0.80695776E+00  0.85965520E+00  0.94289675E+00
  0.11501000E+01  0.53476347E+00  0.53645192E+00  0.67781791E+00  0.80624922E+00  0.85965520E+00  0.94289675E+00
  0.11621000E+01  0.53590432E+00  0.53761508E+00  0.67532834E+00  0.80274582E+00  0.85896259E+00  0.93823985E+00
  0.11741000E+01  0.53702663E+00  0.53874397E+00  0.67266207E+00  0.80200767E+00  0.85896259E+00  0.93823985E+00
  0.11860000E+01  0.53812757E+00  0.53983660E+00  0.66982420E+00  0.79858523E+00  0.85814049E+00  0.93307642E+00
  0.11980000E+01  0.53920420E+00  0.54089324E+00  0.66682116E+00  0.79858523E+00  0.85814049E+00  0.93307642E+00
  0.12100000E+01  0.54025444E+00  0.54191286E+00  0.66366347E+00  0.79448382E+00  0.85720101E+00  0.92749861E+00
  0.12220000E+01  0.54127847E+00  0.54289759E+00  0.66036460E+00  0.79370880E+00  0.85720101E+00  0.92749861E+00
  0.12340000E+01  0.54227470E+00  0.54384950E+00  0.65694297E+00  0.79044667E+00  0.85720101E+00  0.92601873E+00
  0.12459000E+01  0.54324381E+00  0.54477197E+00  0.65341844E+00  0.78966142E+00  0.85615660E+00  0.92601873E+00
  0.12579000E+01  0.54418713E+00  0.54566808E+00  0.64981733E+00  0.78568537E+00  0.85615660E+00  0.92311389E+00
  0.12699000E+01  0.54510634E+00  0.54654349E+00  0.64616740E+00  0.78487827E+00  0.85501964E+00  0.92311389E+00
  0.12819000E+01  0.54600483E+00  0.54740306E+00  0.64249987E+00  0.78322173E+00  0.85909918E+00  0.91863969E+00
  0.12939000E+01  0.54688506E+00  0.54825166E+00  0.63884863E+00  0.77932029E+00  0.85909918E+00  0.92096198E+00
  0.13058000E+01  0.54775277E+00  0.54909623E+00  0.63524823E+00  0.77762441E+00  0.85777405E+00  0.92096198E+00
  0.13178000E+01  0.54861212E+00  0.54994255E+00  0.63173453E+00  0.77708316E+00  0.85777405E+00  0.92254087E+00
  0.13298000E+01  0.54946863E+00  0.55079673E+00  0.62834163E+00  0.77525970E+00  0.85777405E+00  0.92310650E+00
  0.13418000E+01  0.55032819E+00  0.55166443E+00  0.62510291E+00  0.77248713E+00  0.86032219E+00  0.92254087E+00
  0.13538000E+01  0.55119782E+00  0.55255207E+00  0.62204814E+00  0.77157554E+00  0.86032219E+00  0.92096198E+00
  0.13657000E+01  0.55208374E+00  0.55346415E+00  0.61920389E+00  0.77150826E+00  0.86032219E+00  0.92670173E+00
  0.13777000E+01  0.55299287E+00  0.55440512E+00  0.61659177E+00  0.77215726E+00  0.85875315E+00  0.92670173E+00
  0.13897000E+01  0.55393104E+00  0.55537999E+00  0.61422908E+00  0.77258350E+00  0.86264294E+00  0.93057262E+00
  0.14017000E+01  0.55490487E+00  0.55639157E+00  0.61212793E+00  0.77280455E+00  0.86264294E+00  0.93253913E+00
  0.14137000E+01  0.55592019E+00  0.55744275E+00  0.61029479E+00  0.77561154E+00  0.86090633E+00  0.93872284E+00
  0.14256000E+01  0.55698170E+00  0.55853547E+00  0.60873188E+00  0.77659412E+00  0.86090633E+00  0.93823985E+00
  0.14376000E+01  0.55809327E+00  0.55967085E+00  0.60743599E+00  0.78060929E+00  0.86472136E+00  0.94289675E+00
  0.14496000E+01  0.55925914E+00  0.56084919E+00  0.60640078E+00  0.78280442E+00  0.86472136E+00  0.94106850E+00
  0.14616000E+01  0.56048091E+00  0.56207056E+00  0.60561645E+00  0.78628420E+00  0.86282879E+00  0.94461621E+00
  0.14736000E+01  0.56176023E+00  0.56333447E+00  0.60506970E+00  0.79080324E+00  0.86654973E+00  0.94776406E+00
  0.14855000E+01  0.56309752E+00  0.56463950E+00  0.60474656E+00  0.79649129E+00  0.86654973E+00  0.95641909E+00
  0.14975000E+01  0.56449116E+00  0.56598368E+00  0.60462991E+00  0.80196852E+00  0.86451645E+00  0.95876844E+00
  0.15095000E+01  0.56594020E+00  0.56736584E+00  0.60470352E+00  0.80877511E+00  0.86812761E+00  0.96834733E+00
  0.15215000E+01  0.56744159E+00  0.56878266E+00  0.60494924E+00  0.81396827E+00  0.86812761E+00  0.97550575E+00
  0.15335000E+01  0.56899169E+00  0.57023196E+00  0.60534954E+00  0.82055917E+00  0.87174730E+00  0.98225160E+00
  0.15454000E+01  0.57058595E+00  0.57171133E+00  0.60588705E+00  0.82987651E+00  0.87174730E+00  0.98807364E+00
  0.15574000E+01  0.57221987E+00  0.57321775E+00  0.60654467E+00  0.83677483E+00  0.87174730E+00  0.99425498E+00
  0.15694000E+01  0.57388782E+00  0.57474797E+00  0.60730633E+00  0.84480474E+00  0.87294500E+00  0.10000000E+01
  0.15814000E+01  0.57558410E+00  0.57630003E+00  0.60815789E+00  0.85350723E+00  0.87294500E+00  0.99447959E+00
  0.15934000E+01  0.57730296E+00  0.57787011E+00  0.60908489E+00  0.86229598E+00  0.87641215E+00  0.98362448E+00
  0.16053000E+01  0.57903851E+00  0.57945632E+00  0.61007359E+00  0.87114082E+00  0.87641215E+00  0.97833140E+00
  0.16173000E+01  0.58078523E+00  0.58105559E+00  0.61111353E+00  0.88112589E+00  0.87985120E+00  0.96809434E+00
  0.16293000E+01  0.58253719E+00  0.58266555E+00  0.61219344E+00  0.88921975E+00  0.88254461E+00  0.96188490E+00
  0.16413000E+01  0.58428942E+00  0.58428318E+00  0.61330421E+00  0.89873836E+00  0.88254461E+00  0.95698867E+00
  0.16533000E+01  0.58603701E+00  0.58590736E+00  0.61443727E+00  0.90627602E+00  0.88254461E+00  0.94596930E+00
  0.16652000E+01  0.58777573E+00  0.58753534E+00  0.61558616E+00  0.91629598E+00  0.88607952E+00  0.93958190E+00
  0.16772000E+01  0.58950217E+00  0.58916570E+00  0.61674494E+00  0.92346695E+00  0.88607952E+00  0.93313455E+00
  0.16892000E+01  0.59121342E+00  0.59079676E+00  0.61790873E+00  0.93085508E+00  0.88607952E+00  0.93089802E+00
  0.17012000E+01  0.59290716E+00  0.59242708E+00  0.61907325E+00  0.93846002E+00  0.88607952E+00  0.92173079E+00
  0.17132000E+01  0.59458171E+00  0.59405569E+00  0.62023709E+00  0.94573082E+00  0.88607952E+00  0.91902022E+00
  0.17251000E+01  0.59623706E+00  0.59568204E+00  0.62139759E+00  0.95382528E+00  0.88607952E+00  0.91310975E+00
  0.17371000E+01  0.59787262E+00  0.59730609E+00  0.62255406E+00  0.95889385E+00  0.88607952E+00  0.90991490E+00
  0.17491000E+01  0.59948939E+00  0.59892696E+00  0.62370622E+00  0.96414615E+00  0.88325002E+00  0.90657000E+00
  0.17611000E+01  0.60108850E+00  0.60054488E+00  0.62485550E+00  0.96959146E+00  0.88325002E+00  0.89948215E+00
  0.17731000E+01  0.60267269E+00  0.60216130E+00  0.62600260E+00  0.97523878E+00  0.88325002E+00  0.89904263E+00
  0.17850000E+01  0.60424464E+00  0.60377653E+00  0.62714874E+00  0.98133130E+00  0.88049488E+00  0.89506290E+00
  0.17970000E+01  0.60580708E+00  0.60539148E+00  0.62829662E+00  0.98733716E+00  0.88049488E+00  0.89397783E+00
  0.18090000E+01  0.60736409E+00  0.60700763E+00  0.62944884E+00  0.99035792E+00  0.87780969E+00  0.89246464E+00
  0.18210000E+01  0.60891957E+00  0.60862710E+00  0.63060698E+00  0.99672980E+00  0.87820711E+00  0.89048145E+00
  0.18330000E+01  0.61047758E+00  0.61025158E+00  0.63177394E+00  0.10000000E+01  0.87820711E+00  0.89021731E+00
  0.18449000E+01  0.61204177E+00  0.61188309E+00  0.63295265E+00  0.99328774E+00  0.87843457E+00  0.89232149E+00
  0.18569000E+01  0.61361724E+00  0.61352334E+00  0.63414482E+00  0.98980725E+00  0.87576944E+00  0.89427464E+00
  0.18689000E+01  0.61520680E+00  0.61517444E+00  0.63535302E+00  0.98284781E+00  0.87851353E+00  0.89601929E+00
  0.18809000E+01  0.61681415E+00  0.61683901E+00  0.63657955E+00  0.97916646E+00  0.87846348E+00  0.89860881E+00
  0.18929000E+01  0.61844268E+00  0.61851842E+00  0.63782475E+00  0.97198464E+00  0.88102673E+00  0.89931417E+00
  0.19048000E+01  0.62009441E+00  0.62021463E+00  0.63909055E+00  0.96811073E+00  0.88074959E+00  0.89955529E+00
  0.19168000E+01  0.62177152E+00  0.62192864E+00  0.64037798E+00  0.96415231E+00  0.88546590E+00  0.90634406E+00
  0.19288000E+01  0.62347452E+00  0.62366195E+00  0.64168698E+00  0.95670286E+00  0.88772989E+00  0.91286892E+00
  0.19408000E+01  0.62520415E+00  0.62541517E+00  0.64301805E+00  0.95178561E+00  0.88992893E+00  0.91110454E+00
  0.19528000E+01  0.62695963E+00  0.62718815E+00  0.64436981E+00  0.94750928E+00  0.89412880E+00  0.91585100E+00
  0.19647000E+01  0.62874028E+00  0.62898096E+00  0.64574291E+00  0.94215968E+00  0.89612910E+00  0.91938289E+00
  0.19767000E+01  0.63054366E+00  0.63079216E+00  0.64713473E+00  0.93766411E+00  0.89993223E+00  0.92164025E+00
  0.19887000E+01  0.63236751E+00  0.63262095E+00  0.64854457E+00  0.93188293E+00  0.90479838E+00  0.92749861E+00
  0.20007000E+01  0.63420787E+00  0.63446448E+00  0.64997024E+00  0.92924385E+00  0.90968833E+00  0.93270151E+00
  0.20127000E+01  0.63606103E+00  0.63632079E+00  0.65140926E+00  0.92287200E+00  0.91298119E+00  0.93709694E+00
  0.20246000E+01  0.63792267E+00  0.63818634E+00  0.65285884E+00  0.91963404E+00  0.91773628E+00  0.94106850E+00
  0.20366000E+01  0.63978728E+00  0.64005759E+00  0.65431536E+00  0.91789755E+00  0.92247906E+00  0.94776406E+00
  0.20486000E+01  0.64165016E+00  0.64193021E+00  0.65577589E+00  0.91075894E+00  0.93059463E+00  0.95054969E+00
  0.20606000E+01  0.64350512E+00  0.64379970E+00  0.65723466E+00  0.91008404E+00  0.93532506E+00  0.95301576E+00
  0.20726000E+01  0.64534624E+00  0.64566091E+00  0.65868867E+00  0.90561607E+00  0.94000240E+00  0.96082272E+00
  0.20845000E+01  0.64716714E+00  0.64750842E+00  0.66013132E+00  0.90075729E+00  0.94819293E+00  0.96976927E+00
  0.20965000E+01  0.64896218E+00  0.64933681E+00  0.66155779E+00  0.90149820E+00  0.95183552E+00  0.97102614E+00
