#  frequency dependent IMAGINARY DIELECTRIC FUNCTION (independent particle, no local field effects)
#     E(ev)      X         Y         Z        XY        YZ        ZX
#  --------------------------------------------------------------------------------------
    0.000000    0.000000    0.000000    0.000000    0.000000    0.000000    0.000000
    0.029842    0.009701    0.009701    0.009701   -0.000000   -0.000000   -0.000000
    0.059684    0.019433    0.019433    0.019433   -0.000000   -0.000000   -0.000000
    0.089526    0.029228    0.029228    0.029228   -0.000000   -0.000000   -0.000000
    0.119367    0.039117    0.039117    0.039117   -0.000000   -0.000000   -0.000000
    0.149209    0.049134    0.049134    0.049134   -0.000000   -0.000000   -0.000000
    0.179051    0.059315    0.059315    0.059315   -0.000000   -0.000000   -0.000000
    0.208893    0.069698    0.069698    0.069698   -0.000000   -0.000000   -0.000000
    0.238735    0.080325    0.080325    0.080325   -0.000000   -0.000000   -0.000000
    0.268577    0.091241    0.091241    0.091241   -0.000000   -0.000000   -0.000000
    0.298419    0.102497    0.102497    0.102497   -0.000000   -0.000000   -0.000000
    0.328261    0.114152    0.114152    0.114152   -0.000000   -0.000000   -0.000000
    0.358102    0.126270    0.126270    0.126270   -0.000000   -0.000000   -0.000000
    0.387944    0.138927    0.138927    0.138927   -0.000000   -0.000000   -0.000000
    0.417786    0.152214    0.152214    0.152214   -0.000000   -0.000000   -0.000000
    0.447628    0.166234    0.166234    0.166234   -0.000000   -0.000000   -0.000000
    0.477470    0.181116    0.181116    0.181116   -0.000000   -0.000000   -0.000000
    0.507312    0.197012    0.197012    0.197012   -0.000000   -0.000000   -0.000000
    0.537154    0.214115    0.214115    0.214115   -0.000000   -0.000000   -0.000000
    0.566995    0.232663    0.232663    0.232663   -0.000000   -0.000000   -0.000000
    0.596837    0.252961    0.252961    0.252961   -0.000000   -0.000000   -0.000000
    0.626679    0.275406    0.275406    0.275406   -0.000000   -0.000000   -0.000000
    0.656521    0.300524    0.300524    0.300524   -0.000000   -0.000000   -0.000000
    0.686363    0.329027    0.329027    0.329027   -0.000000   -0.000000   -0.000000
    0.716205    0.361899    0.361899    0.361899   -0.000000   -0.000000   -0.000000
    0.746047    0.400532    0.400532    0.400532   -0.000000   -0.000000   -0.000000
    0.775888    0.446934    0.446934    0.446934   -0.000000   -0.000000   -0.000000
    0.805730    0.504037    0.504037    0.504037   -0.000000   -0.000000   -0.000000
    0.835572    0.576063    0.576063    0.576063   -0.000000   -0.000000   -0.000000
    0.865414    0.668674    0.668674    0.668674   -0.000000   -0.000000   -0.000000
    0.895256    0.787740    0.787740    0.787740   -0.000000   -0.000000   -0.000000
    0.925098    0.934456    0.934456    0.934456   -0.000000   -0.000000   -0.000000
    0.954940    1.098153    1.098153    1.098153   -0.000000   -0.000000   -0.000000
    0.984782    1.259659    1.259659    1.259659   -0.000000   -0.000000   -0.000000
    1.014623    1.406479    1.406479    1.406479    0.000000   -0.000000   -0.000000
    1.044465    1.537287    1.537287    1.537287    0.000000   -0.000000    0.000000
    1.074307    1.655706    1.655706    1.655706    0.000000   -0.000000    0.000000
    1.104149    1.765711    1.765711    1.765711    0.000000   -0.000000    0.000000
    1.133991    1.870334    1.870334    1.870334    0.000000   -0.000000    0.000000
    1.163833    1.971681    1.971681    1.971681    0.000000   -0.000000    0.000000
    1.193675    2.071187    2.071187    2.071187    0.000000   -0.000000   -0.000000
    1.223516    2.169841    2.169841    2.169841    0.000000   -0.000000   -0.000000
    1.253358    2.268357    2.268357    2.268357   -0.000000   -0.000000   -0.000000
    1.283200    2.367264    2.367264    2.367264   -0.000000   -0.000000   -0.000000
    1.313042    2.466976    2.466976    2.466976   -0.000000   -0.000000   -0.000000
    1.342884    2.567851    2.567851    2.567851   -0.000000    0.000000   -0.000000
    1.372726    2.670203    2.670203    2.670203   -0.000000    0.000000   -0.000000
    1.402568    2.774338    2.774338    2.774338   -0.000000    0.000000   -0.000000
    1.432409    2.880579    2.880579    2.880579   -0.000000    0.000000   -0.000000
    1.462251    2.989289    2.989289    2.989289   -0.000000    0.000000   -0.000000
    1.492093    3.100895    3.100895    3.100895   -0.000000    0.000000   -0.000000
    1.521935    3.215940    3.215940    3.215940   -0.000000    0.000000   -0.000000
    1.551777    3.335126    3.335126    3.335126   -0.000000   -0.000000   -0.000000
    1.581619    3.459405    3.459405    3.459405   -0.000000   -0.000000   -0.000000
    1.611461    3.590062    3.590062    3.590062   -0.000000   -0.000000   -0.000000
    1.641303    3.728803    3.728803    3.728803   -0.000000   -0.000000   -0.000000
    1.671144    3.877515    3.877515    3.877515   -0.000000    0.000000   -0.000000
    1.700986    4.036745    4.036745    4.036745   -0.000000    0.000000   -0.000000
    1.730828    4.201629    4.201629    4.201629    0.000000    0.000000   -0.000000
    1.760670    4.359126    4.359126    4.359126    0.000000    0.000000   -0.000000
    1.790512    4.500318    4.500318    4.500318    0.000000   -0.000000    0.000000
    1.820354    4.637980    4.637980    4.637980    0.000000   -0.000000    0.000000
    1.850196    4.797297    4.797297    4.797297    0.000000   -0.000000    0.000000
    1.880037    4.996527    4.996527    4.996527    0.000000    0.000000    0.000000
    1.909879    5.244298    5.244298    5.244298    0.000000    0.000000    0.000000
    1.939721    5.546604    5.546604    5.546604    0.000000    0.000000   -0.000000
    1.969563    5.912281    5.912281    5.912281    0.000000   -0.000000   -0.000000
    1.999405    6.353813    6.353813    6.353813    0.000000   -0.000000   -0.000000
    2.029247    6.882906    6.882906    6.882906    0.000000   -0.000000   -0.000000
    2.059089    7.501618    7.501618    7.501618    0.000000   -0.000000   -0.000000
    2.088930    8.196019    8.196019    8.196019    0.000000   -0.000000   -0.000000
    2.118772    8.939944    8.939944    8.939944   -0.000000    0.000000   -0.000000
    2.148614    9.704612    9.704612    9.704612   -0.000000    0.000000   -0.000000
    2.178456   10.463861   10.463861   10.463861   -0.000000    0.000000   -0.000000
    2.208298   11.194287   11.194287   11.194287   -0.000000    0.000000   -0.000000
    2.238140   11.875336   11.875336   11.875336   -0.000000    0.000000   -0.000000
    2.267982   12.489858   12.489858   12.489858   -0.000000    0.000000   -0.000000
    2.297824   13.024294   13.024294   13.024294   -0.000000    0.000000   -0.000000
    2.327665   13.470293   13.470293   13.470293   -0.000000    0.000000   -0.000000
    2.357507   13.826878   13.826878   13.826878   -0.000000    0.000000   -0.000000
    2.387349   14.098155   14.098155   14.098155   -0.000000   -0.000000   -0.000000
    2.417191   14.289094   14.289094   14.289094   -0.000000   -0.000000   -0.000000
    2.447033   14.411859   14.411859   14.411859   -0.000000   -0.000000   -0.000000
    2.476875   14.487742   14.487742   14.487742   -0.000000   -0.000000   -0.000000
    2.506717   14.528562   14.528562   14.528562   -0.000000    0.000000   -0.000000
    2.536558   14.531061   14.531061   14.531061   -0.000000    0.000000   -0.000000
    2.566400   14.490624   14.490624   14.490624   -0.000000    0.000000   -0.000000
    2.596242   14.412221   14.412221   14.412221   -0.000000    0.000000   -0.000000
    2.626084   14.310120   14.310120   14.310120   -0.000000    0.000000   -0.000000
    2.655926   14.200590   14.200590   14.200590   -0.000000    0.000000   -0.000000
    2.685768   14.094874   14.094874   14.094874   -0.000000    0.000000   -0.000000
    2.715610   13.997179   13.997179   13.997179   -0.000000    0.000000   -0.000000
    2.745451   13.906441   13.906441   13.906441   -0.000000    0.000000   -0.000000
    2.775293   13.819845   13.819845   13.819845   -0.000000    0.000000   -0.000000
    2.805135   13.735688   13.735688   13.735688   -0.000000    0.000000   -0.000000
    2.834977   13.653992   13.653992   13.653992    0.000000    0.000000   -0.000000
    2.864819   13.575450   13.575450   13.575450    0.000000    0.000000   -0.000000
    2.894661   13.500803   13.500803   13.500803    0.000000    0.000000   -0.000000
    2.924503   13.430844   13.430844   13.430844    0.000000    0.000000   -0.000000
    2.954345   13.366264   13.366264   13.366264    0.000000    0.000000    0.000000
    2.984186   13.306739   13.306739   13.306739    0.000000    0.000000    0.000000
    3.014028   13.248807   13.248807   13.248807    0.000000    0.000000    0.000000
    3.043870   13.185850   13.185850   13.185850    0.000000   -0.000000    0.000000
    3.073712   13.116093   13.116093   13.116093    0.000000   -0.000000    0.000000
    3.103554   13.048484   13.048484   13.048484    0.000000   -0.000000    0.000000
    3.133396   12.992546   12.992546   12.992546    0.000000   -0.000000    0.000000
    3.163238   12.951450   12.951450   12.951450    0.000000   -0.000000    0.000000
    3.193079   12.924827   12.924827   12.924827    0.000000   -0.000000    0.000000
    3.222921   12.912061   12.912061   12.912061    0.000000   -0.000000   -0.000000
    3.252763   12.913342   12.913342   12.913342    0.000000   -0.000000   -0.000000
    3.282605   12.929665   12.929665   12.929665    0.000000   -0.000000   -0.000000
    3.312447   12.962688   12.962688   12.962688   -0.000000   -0.000000   -0.000000
    3.342289   13.014588   13.014588   13.014588   -0.000000   -0.000000   -0.000000
    3.372131   13.087837   13.087837   13.087837   -0.000000   -0.000000   -0.000000
    3.401972   13.184910   13.184910   13.184910   -0.000000   -0.000000   -0.000000
    3.431814   13.308630   13.308630   13.308630   -0.000000   -0.000000   -0.000000
    3.461656   13.463258   13.463258   13.463258   -0.000000   -0.000000   -0.000000
    3.491498   13.655416   13.655416   13.655416   -0.000000   -0.000000   -0.000000
    3.521340   13.894247   13.894247   13.894247   -0.000000   -0.000000   -0.000000
    3.551182   14.189490   14.189490   14.189490   -0.000000   -0.000000   -0.000000
    3.581024   14.548256   14.548256   14.548256   -0.000000   -0.000000   -0.000000
    3.610866   14.977542   14.977542   14.977542   -0.000000   -0.000000   -0.000000
    3.640707   15.489043   15.489043   15.489043   -0.000000   -0.000000   -0.000000
    3.670549   16.085647   16.085647   16.085647   -0.000000   -0.000000   -0.000000
    3.700391   16.738404   16.738404   16.738404   -0.000000   -0.000000   -0.000000
    3.730233   17.392387   17.392387   17.392387   -0.000000   -0.000000   -0.000000
    3.760075   17.997385   17.997385   17.997385   -0.000000   -0.000000   -0.000000
    3.789917   18.535994   18.535994   18.535994   -0.000000   -0.000000   -0.000000
    3.819759   19.034986   19.034986   19.034986   -0.000000    0.000000   -0.000000
    3.849600   19.528158   19.528158   19.528158   -0.000000    0.000000   -0.000000
    3.879442   20.032213   20.032213   20.032213   -0.000000    0.000000   -0.000000
    3.909284   20.560495   20.560495   20.560495   -0.000000    0.000000   -0.000000
    3.939126   21.132724   21.132724   21.132724   -0.000000    0.000000   -0.000000
    3.968968   21.769959   21.769959   21.769959   -0.000000    0.000000   -0.000000
    3.998810   22.487054   22.487054   22.487054   -0.000000    0.000000   -0.000000
    4.028652   23.286515   23.286515   23.286515   -0.000000    0.000000   -0.000000
    4.058493   24.154638   24.154638   24.154638   -0.000000    0.000000    0.000000
    4.088335   25.057775   25.057775   25.057775   -0.000000    0.000000    0.000000
    4.118177   25.932154   25.932154   25.932154   -0.000000    0.000000   -0.000000
    4.148019   26.677204   26.677204   26.677204   -0.000000   -0.000000   -0.000000
    4.177861   27.189048   27.189048   27.189048   -0.000000   -0.000000   -0.000000
    4.207703   27.413466   27.413466   27.413466    0.000000   -0.000000   -0.000000
    4.237545   27.345874   27.345874   27.345874    0.000000   -0.000000   -0.000000
    4.267387   26.998457   26.998457   26.998457    0.000000   -0.000000    0.000000
    4.297228   26.382826   26.382826   26.382826    0.000000   -0.000000    0.000000
    4.327070   25.508173   25.508173   25.508173   -0.000000   -0.000000    0.000000
    4.356912   24.390772   24.390772   24.390772   -0.000000   -0.000000   -0.000000
    4.386754   23.087497   23.087497   23.087497   -0.000000   -0.000000   -0.000000
    4.416596   21.725439   21.725439   21.725439   -0.000000   -0.000000   -0.000000
    4.446438   20.455491   20.455491   20.455491   -0.000000   -0.000000   -0.000000
    4.476280   19.364207   19.364207   19.364207   -0.000000   -0.000000   -0.000000
    4.506121   18.456400   18.456400   18.456400   -0.000000   -0.000000   -0.000000
    4.535963   17.696482   17.696482   17.696482   -0.000000   -0.000000   -0.000000
    4.565805   17.043635   17.043635   17.043635   -0.000000   -0.000000   -0.000000
    4.595647   16.468305   16.468305   16.468305   -0.000000   -0.000000   -0.000000
    4.625489   15.953650   15.953650   15.953650   -0.000000   -0.000000   -0.000000
    4.655331   15.490143   15.490143   15.490143   -0.000000   -0.000000   -0.000000
    4.685173   15.071439   15.071439   15.071439   -0.000000   -0.000000   -0.000000
    4.715014   14.691962   14.691962   14.691962   -0.000000   -0.000000   -0.000000
    4.744856   14.346155   14.346155   14.346155   -0.000000   -0.000000   -0.000000
    4.774698   14.029267   14.029267   14.029267   -0.000000   -0.000000   -0.000000
    4.804540   13.737869   13.737869   13.737869   -0.000000   -0.000000   -0.000000
    4.834382   13.468625   13.468625   13.468625   -0.000000   -0.000000   -0.000000
    4.864224   13.215984   13.215984   13.215984   -0.000000   -0.000000   -0.000000
    4.894066   12.970679   12.970679   12.970679   -0.000000   -0.000000   -0.000000
    4.923908   12.721223   12.721223   12.721223   -0.000000   -0.000000   -0.000000
    4.953749   12.457576   12.457576   12.457576   -0.000000   -0.000000   -0.000000
    4.983591   12.175369   12.175369   12.175369   -0.000000   -0.000000   -0.000000
    5.013433   11.879071   11.879071   11.879071   -0.000000   -0.000000   -0.000000
    5.043275   11.580085   11.580085   11.580085   -0.000000   -0.000000   -0.000000
    5.073117   11.290108   11.290108   11.290108   -0.000000   -0.000000   -0.000000
    5.102959   11.018353   11.018353   11.018353   -0.000000   -0.000000   -0.000000
    5.132801   10.772405   10.772405   10.772405   -0.000000   -0.000000   -0.000000
    5.162642   10.557300   10.557300   10.557300   -0.000000   -0.000000   -0.000000
    5.192484   10.375038   10.375038   10.375038   -0.000000   -0.000000   -0.000000
    5.222326   10.225429   10.225429   10.225429   -0.000000   -0.000000   -0.000000
    5.252168   10.104095   10.104095   10.104095   -0.000000   -0.000000   -0.000000
    5.282010   10.002220   10.002220   10.002220   -0.000000    0.000000   -0.000000
    5.311852    9.911026    9.911026    9.911026   -0.000000    0.000000   -0.000000
    5.341694    9.825545    9.825545    9.825545   -0.000000    0.000000   -0.000000
    5.371535    9.745320    9.745320    9.745320   -0.000000    0.000000   -0.000000
    5.401377    9.673972    9.673972    9.673972   -0.000000    0.000000   -0.000000
    5.431219    9.619954    9.619954    9.619954   -0.000000    0.000000   -0.000000
    5.461061    9.596103    9.596103    9.596103   -0.000000    0.000000   -0.000000
    5.490903    9.616549    9.616549    9.616549    0.000000    0.000000    0.000000
    5.520745    9.694331    9.694331    9.694331    0.000000    0.000000    0.000000
    5.550587    9.837312    9.837312    9.837312    0.000000    0.000000    0.000000
    5.580429   10.033794   10.033794   10.033794    0.000000    0.000000    0.000000
    5.610270   10.227448   10.227448   10.227448    0.000000    0.000000    0.000000
    5.640112   10.317448   10.317448   10.317448    0.000000    0.000000    0.000000
    5.669954   10.223734   10.223734   10.223734    0.000000    0.000000    0.000000
    5.699796    9.960386    9.960386    9.960386    0.000000    0.000000    0.000000
    5.729638    9.618873    9.618873    9.618873    0.000000    0.000000    0.000000
    5.759480    9.286372    9.286372    9.286372    0.000000    0.000000    0.000000
    5.789322    9.001823    9.001823    9.001823    0.000000   -0.000000    0.000000
    5.819163    8.767623    8.767623    8.767623    0.000000    0.000000    0.000000
    5.849005    8.572013    8.572013    8.572013   -0.000000    0.000000    0.000000
    5.878847    8.401199    8.401199    8.401199   -0.000000    0.000000    0.000000
    5.908689    8.243989    8.243989    8.243989   -0.000000    0.000000    0.000000
    5.938531    8.093344    8.093344    8.093344   -0.000000    0.000000    0.000000
    5.968373    7.945975    7.945975    7.945975   -0.000000    0.000000    0.000000
    5.998215    7.800196    7.800196    7.800196    0.000000    0.000000    0.000000
    6.028056    7.651775    7.651775    7.651775    0.000000    0.000000    0.000000
    6.057898    7.491622    7.491622    7.491622    0.000000    0.000000    0.000000
    6.087740    7.314308    7.314308    7.314308   -0.000000    0.000000    0.000000
    6.117582    7.127204    7.127204    7.127204   -0.000000    0.000000    0.000000
    6.147424    6.941320    6.941320    6.941320   -0.000000    0.000000   -0.000000
    6.177266    6.762602    6.762602    6.762602   -0.000000    0.000000   -0.000000
    6.207108    6.592556    6.592556    6.592556   -0.000000    0.000000   -0.000000
    6.236950    6.430158    6.430158    6.430158   -0.000000    0.000000    0.000000
    6.266791    6.274319    6.274319    6.274319   -0.000000    0.000000    0.000000
    6.296633    6.125612    6.125612    6.125612   -0.000000    0.000000    0.000000
    6.326475    5.984978    5.984978    5.984978   -0.000000    0.000000    0.000000
    6.356317    5.852562    5.852562    5.852562   -0.000000    0.000000    0.000000
    6.386159    5.727831    5.727831    5.727831   -0.000000    0.000000    0.000000
    6.416001    5.609667    5.609667    5.609667   -0.000000   -0.000000    0.000000
    6.445843    5.496570    5.496570    5.496570   -0.000000   -0.000000    0.000000
    6.475684    5.387131    5.387131    5.387131   -0.000000   -0.000000    0.000000
    6.505526    5.280392    5.280392    5.280392    0.000000   -0.000000    0.000000
    6.535368    5.175855    5.175855    5.175855    0.000000   -0.000000    0.000000
    6.565210    5.073327    5.073327    5.073327    0.000000   -0.000000    0.000000
    6.595052    4.972685    4.972685    4.972685    0.000000   -0.000000    0.000000
    6.624894    4.873676    4.873676    4.873676    0.000000   -0.000000    0.000000
    6.654736    4.775890    4.775890    4.775890    0.000000   -0.000000    0.000000
    6.684577    4.678981    4.678981    4.678981    0.000000   -0.000000    0.000000
    6.714419    4.583067    4.583067    4.583067    0.000000   -0.000000    0.000000
    6.744261    4.488749    4.488749    4.488749    0.000000   -0.000000    0.000000
    6.774103    4.396615    4.396615    4.396615    0.000000   -0.000000    0.000000
    6.803945    4.306824    4.306824    4.306824    0.000000   -0.000000    0.000000
    6.833787    4.219067    4.219067    4.219067    0.000000    0.000000    0.000000
    6.863629    4.132904    4.132904    4.132904    0.000000    0.000000    0.000000
    6.893471    4.048107    4.048107    4.048107    0.000000    0.000000    0.000000
