#  frequency dependent IMAGINARY DIELECTRIC FUNCTION (independent particle, no local field effects)
#     E(ev)      X         Y         Z        XY        YZ        ZX
#  --------------------------------------------------------------------------------------
    0.000000    0.000000    0.000000    0.000000    0.000000    0.000000    0.000000
    0.042720    9.289609    9.678461    9.848095    0.000067    0.000000    0.000000
    0.085439   17.628787   18.218614   18.892410    0.000036    0.000000    0.000000
    0.128159   24.252337   24.758773   26.455211   -0.000137    0.000000    0.000000
    0.170879   28.720378   28.894003   32.097140   -0.000421    0.000000    0.000000
    0.213598   30.975590   30.703837   35.691477   -0.000730    0.000000    0.000000
    0.256318   31.299872   30.633987   37.430472   -0.000962    0.000000    0.000000
    0.299038   30.187777   29.295787   37.754243   -0.001053    0.000000    0.000000
    0.341757   28.186726   27.271508   37.226966   -0.000988    0.000000    0.000000
    0.384477   25.767266   24.994509   36.416030   -0.000804    0.000000    0.000000
    0.427197   23.264378   22.726954   35.824749   -0.000561    0.000000    0.000000
    0.469916   20.889602   20.607993   35.887238   -0.000315    0.000000    0.000000
    0.512636   18.778237   18.721532   36.985639   -0.000101    0.000000    0.000000
    0.555356   17.028104   17.139484   39.432306    0.000072    0.000000    0.000000
    0.598075   15.708332   15.925359   43.388746    0.000208    0.000000    0.000000
    0.640795   14.845604   15.112372   48.754506    0.000318    0.000000    0.000000
    0.683514   14.411640   14.682906   55.100319    0.000406    0.000000    0.000000
    0.726234   14.329939   14.569602   61.711353    0.000470    0.000000    0.000000
    0.768954   14.502383   14.680275   67.746016    0.000502    0.000000    0.000000
    0.811673   14.841160   14.933058   72.447961    0.000502    0.000000    0.000000
    0.854393   15.290616   15.283772   75.320517    0.000475    0.000000    0.000000
    0.897113   15.831943   15.734200   76.198942    0.000438    0.000000    0.000000
    0.939832   16.475263   16.321513   75.215464    0.000408    0.000000    0.000000
    0.982552   17.247288   17.096620   72.699432    0.000398    0.000000    0.000000
    1.025272   18.180615   18.101133   69.068411    0.000415    0.000000    0.000000
    1.067991   19.304253   19.350384   64.745785    0.000454    0.000000    0.000000
    1.110711   20.633086   20.826256   60.115503    0.000505    0.000000    0.000000
    1.153431   22.156529   22.481261   55.505579    0.000560    0.000000    0.000000
    1.196150   23.831631   24.251743   51.186473    0.000617    0.000000    0.000000
    1.238870   25.588089   26.075756   47.373231    0.000678    0.000000    0.000000
    1.281590   27.348754   27.908962   44.225294    0.000744    0.000000    0.000000
    1.324309   29.059799   29.732623   41.843537    0.000812    0.000000    0.000000
    1.367029   30.717857   31.551510   40.267958    0.000875    0.000000    0.000000
    1.409749   32.379101   33.384320   39.478770    0.000919    0.000000    0.000000
    1.452468   34.142789   35.251900   39.402255    0.000932    0.000000    0.000000
    1.495188   36.113151   37.168789   39.920396    0.000911    0.000000    0.000000
    1.537908   38.354551   39.140657   40.883318    0.000860    0.000000    0.000000
    1.580627   40.859733   41.167058   42.124449    0.000792    0.000000    0.000000
    1.623347   43.544938   43.246138   43.478826    0.000724    0.000000    0.000000
    1.666067   46.275919   45.378601   44.802084    0.000666    0.000000    0.000000
    1.708786   48.914370   47.569016   45.986269    0.000616    0.000000    0.000000
    1.751506   51.365103   49.824300   46.966839    0.000562    0.000000    0.000000
    1.794226   53.603131   52.148833   47.718555    0.000486    0.000000    0.000000
    1.836945   55.667849   54.535799   48.243011    0.000376    0.000000    0.000000
    1.879665   57.627106   56.955116   48.554419    0.000232    0.000000    0.000000
    1.922384   59.526231   59.340532   48.669614    0.000074    0.000000    0.000000
    1.965104   61.344856   61.580100   48.602590   -0.000065    0.000000    0.000000
    2.007824   62.980491   63.519594   48.360334   -0.000151    0.000000    0.000000
    2.050543   64.267303   64.982424   47.937349   -0.000162    0.000000    0.000000
    2.093263   65.024028   65.806118   47.312146   -0.000096    0.000000    0.000000
    2.135983   65.113272   65.883868   46.451871    0.000022    0.000000    0.000000
    2.178702   64.488776   65.196481   45.328492    0.000159    0.000000    0.000000
    2.221422   63.211964   63.820717   43.939969    0.000280    0.000000    0.000000
    2.264142   61.432593   61.910431   42.324230    0.000364    0.000000    0.000000
    2.306861   59.343427   59.659808   40.555728    0.000403    0.000000    0.000000
    2.349581   57.130484   57.262999   38.725179    0.000403    0.000000    0.000000
    2.392301   54.936697   54.883035   36.912629    0.000370    0.000000    0.000000
    2.435020   52.847059   52.634543   35.169252    0.000310    0.000000    0.000000
    2.477740   50.894160   50.579186   33.515866    0.000231    0.000000    0.000000
    2.520460   49.074310   48.731334   31.956757    0.000141    0.000000    0.000000
    2.563179   47.368075   47.071942   30.498973    0.000054    0.000000    0.000000
    2.605899   45.760719   45.569546   29.165789   -0.000015    0.000000    0.000000
    2.648619   44.259495   44.203675   27.997821   -0.000053    0.000000    0.000000
    2.691338   42.903384   42.983143   27.042198   -0.000054    0.000000    0.000000
    2.734058   41.759219   41.949493   26.335970   -0.000024    0.000000    0.000000
    2.776778   40.902121   41.161288   25.891168    0.000020    0.000000    0.000000
    2.819497   40.383123   40.663308   25.686590    0.000050    0.000000    0.000000
    2.862217   40.195751   40.452149   25.668912    0.000032    0.000000    0.000000
    2.904937   40.255644   40.453723   25.762039   -0.000059    0.000000    0.000000
    2.947656   40.404715   40.524067   25.881678   -0.000232    0.000000    0.000000
    2.990376   40.442389   40.476384   25.950843   -0.000470    0.000000    0.000000
    3.033096   40.174584   40.127163   25.912358   -0.000735    0.000000    0.000000
    3.075815   39.463124   39.344841   25.735951   -0.000981    0.000000    0.000000
    3.118535   38.257442   38.083705   25.419510   -0.001167    0.000000    0.000000
    3.161255   36.599050   36.390610   24.986060   -0.001271    0.000000    0.000000
    3.203974   34.600629   34.385131   24.477697   -0.001292    0.000000    0.000000
    3.246694   32.411688   32.222550   23.947230   -0.001247    0.000000    0.000000
    3.289413   30.184440   30.055541   23.447723   -0.001161    0.000000    0.000000
    3.332133   28.049066   28.005775   23.021733   -0.001059    0.000000    0.000000
    3.374853   26.100529   26.150801   22.693879   -0.000957    0.000000    0.000000
    3.417572   24.394666   24.524133   22.469856   -0.000866    0.000000    0.000000
    3.460292   22.950554   23.124257   22.342752   -0.000787    0.000000    0.000000
    3.503012   21.756228   21.927016   22.302877   -0.000720    0.000000    0.000000
    3.545731   20.776571   20.897839   22.345557   -0.000661    0.000000    0.000000
    3.588451   19.961798   20.000614   22.472352   -0.000606    0.000000    0.000000
    3.631171   19.255976   19.202297   22.685080   -0.000549    0.000000    0.000000
    3.673890   18.605007   18.473926   22.975767   -0.000486    0.000000    0.000000
    3.716610   17.963751   17.789988   23.317167   -0.000414    0.000000    0.000000
    3.759330   17.302386   17.128692   23.658191   -0.000337    0.000000    0.000000
    3.802049   16.610284   16.473991   23.926294   -0.000261    0.000000    0.000000
    3.844769   15.896123   15.818219   24.037203   -0.000194    0.000000    0.000000
    3.887489   15.183161   15.163466   23.910602   -0.000142    0.000000    0.000000
    3.930208   14.500778   14.520574   23.488693   -0.000110    0.000000    0.000000
    3.972928   13.875160   13.905653   22.752864   -0.000097    0.000000    0.000000
    4.015648   13.322518   13.335985   21.732551   -0.000099    0.000000    0.000000
    4.058367   12.847040   12.826298   20.501619   -0.000108    0.000000    0.000000
    4.101087   12.442915   12.386285   19.162001   -0.000115    0.000000    0.000000
    4.143807   12.098762   12.019022   17.819864   -0.000116    0.000000    0.000000
    4.186526   11.802110   11.720603   16.563063   -0.000111    0.000000    0.000000
    4.229246   11.543073   11.481443   15.447435   -0.000102    0.000000    0.000000
    4.271966   11.316819   11.289594   14.494757   -0.000095    0.000000    0.000000
    4.314685   11.124793   11.135059   13.700001   -0.000094    0.000000    0.000000
    4.357405   10.973804   11.013167   13.041755   -0.000099    0.000000    0.000000
    4.400125   10.872480   10.924862   12.491782   -0.000109    0.000000    0.000000
    4.442844   10.825342   10.873094   12.020617   -0.000121    0.000000    0.000000
    4.485564   10.826930   10.857063   11.600212   -0.000131    0.000000    0.000000
    4.528283   10.858761   10.867130   11.205440   -0.000133    0.000000    0.000000
    4.571003   10.891248   10.883050   10.816099   -0.000126    0.000000    0.000000
    4.613723   10.890153   10.876572   10.419549   -0.000107    0.000000    0.000000
    4.656442   10.824740   10.817379   10.012740   -0.000078    0.000000    0.000000
    4.699162   10.674485   10.680022    9.602206   -0.000040    0.000000    0.000000
    4.741882   10.432169   10.449719    9.201250    0.000003    0.000000    0.000000
    4.784601   10.103568   10.125625    8.825365    0.000047    0.000000    0.000000
    4.827321    9.705054    9.721187    8.487505    0.000086    0.000000    0.000000
    4.870041    9.260513    9.261698    8.194613    0.000115    0.000000    0.000000
    4.912760    8.798196    8.779840    7.946205    0.000131    0.000000    0.000000
    4.955480    8.347311    8.310085    7.734922    0.000131    0.000000    0.000000
    4.998200    7.934173    7.883001    7.548861    0.000115    0.000000    0.000000
    5.040919    7.578390    7.520561    7.375076    0.000085    0.000000    0.000000
    5.083639    7.289896    7.233111    7.203255    0.000046    0.000000    0.000000
    5.126359    7.067707    7.018439    7.028164    0.000006    0.000000    0.000000
    5.169078    6.900861    6.863253    6.849971   -0.000026    0.000000    0.000000
    5.211798    6.771493    6.746714    6.672269   -0.000043    0.000000    0.000000
    5.254518    6.659366    6.645651    6.498929   -0.000042    0.000000    0.000000
    5.297237    6.546631    6.540025    6.331390   -0.000025    0.000000    0.000000
    5.339957    6.421572    6.417284    6.167600    0.000001    0.000000    0.000000
    5.382677    6.280319    6.274233    6.002807    0.000026    0.000000    0.000000
    5.425396    6.126084    6.115991    5.831679    0.000041    0.000000    0.000000
    5.468116    5.966527    5.952614    5.650681    0.000043    0.000000    0.000000
    5.510836    5.810212    5.794828    5.459895    0.000032    0.000000    0.000000
    5.553555    5.663450    5.650370    5.263749    0.000015    0.000000    0.000000
    5.596275    5.528485    5.522015    5.070459   -0.000003    0.000000    0.000000
    5.638995    5.403503    5.407597    4.890374   -0.000016    0.000000    0.000000
    5.681714    5.284156    5.301646    4.733676   -0.000019    0.000000    0.000000
    5.724434    5.166031    5.197925    4.608166   -0.000014    0.000000    0.000000
    5.767153    5.046967    5.091899    4.517676   -0.000004    0.000000    0.000000
    5.809873    4.928261    4.982398    4.461479    0.000007    0.000000    0.000000
    5.852593    4.814298    4.871938    4.434423    0.000015    0.000000    0.000000
    5.895312    4.710875    4.765574    4.427688    0.000019    0.000000    0.000000
    5.938032    4.623049    4.668825    4.429953    0.000018    0.000000    0.000000
    5.980752    4.553373    4.585540    4.429233    0.000014    0.000000    0.000000
    6.023471    4.501253    4.516493    4.415225    0.000010    0.000000    0.000000
    6.066191    4.463155    4.459403    4.381841    0.000007    0.000000    0.000000
    6.108911    4.433426    4.410066    4.328996    0.000007    0.000000    0.000000
    6.151630    4.405085    4.363927    4.262765    0.000009    0.000000    0.000000
    6.194350    4.370670    4.317267    4.193489    0.000011    0.000000    0.000000
    6.237070    4.323275    4.267495    4.132199    0.000011    0.000000    0.000000
    6.279789    4.257924    4.212750    4.086560    0.000009    0.000000    0.000000
    6.322509    4.172967    4.151339    4.057813    0.000003    0.000000    0.000000
    6.365229    4.070739    4.081534    4.040071   -0.000006    0.000000    0.000000
    6.407948    3.956810    4.001841    4.022322   -0.000017    0.000000    0.000000
    6.450668    3.837887    3.911391    3.992442   -0.000026    0.000000    0.000000
    6.493388    3.719344    3.810180    3.941507   -0.000033    0.000000    0.000000
    6.536107    3.603567    3.698967    3.866690   -0.000036    0.000000    0.000000
    6.578827    3.490017    3.579079    3.771695   -0.000033    0.000000    0.000000
    6.621547    3.376835    3.452523    3.664773   -0.000027    0.000000    0.000000
    6.664266    3.262992    3.322330    3.555412   -0.000017    0.000000    0.000000
    6.706986    3.149864    3.192940    3.451074   -0.000009    0.000000    0.000000
    6.749706    3.041422    3.070041    3.355203   -0.000003    0.000000    0.000000
    6.792425    2.943131    2.959642    3.267092   -0.000002    0.000000    0.000000
    6.835145    2.860096    2.866586    3.183422   -0.000007    0.000000    0.000000
    6.877865    2.795310    2.793098    3.100573   -0.000015    0.000000    0.000000
    6.920584    2.748696    2.738085    3.016583   -0.000025    0.000000    0.000000
    6.963304    2.717220    2.697512    2.931946   -0.000033    0.000000    0.000000
    7.006024    2.695898    2.665681    2.849100   -0.000038    0.000000    0.000000
    7.048743    2.679070    2.636732    2.771134   -0.000039    0.000000    0.000000
    7.091463    2.661412    2.605724    2.700362   -0.000035    0.000000    0.000000
    7.134182    2.638358    2.569075    2.637344   -0.000027    0.000000    0.000000
    7.176902    2.606240    2.524518    2.580605   -0.000016    0.000000    0.000000
    7.219622    2.562442    2.471106    2.527070   -0.000004    0.000000    0.000000
    7.262341    2.505788    2.409376    2.473023    0.000007    0.000000    0.000000
    7.305061    2.436930    2.341538    2.415256    0.000015    0.000000    0.000000
    7.347781    2.358377    2.271264    2.352020    0.000018    0.000000    0.000000
    7.390500    2.273964    2.202899    2.283458    0.000016    0.000000    0.000000
    7.433220    2.187928    2.140299    2.211430    0.000011    0.000000    0.000000
    7.475940    2.103970    2.085765    2.138870    0.000004    0.000000    0.000000
    7.518659    2.024678    2.039515    2.068913   -0.000001    0.000000    0.000000
    7.561379    1.951463    1.999866    2.004100   -0.000002    0.000000    0.000000
    7.604099    1.884910    1.963953    1.945783   -0.000001    0.000000    0.000000
    7.646818    1.825314    1.928700    1.893963    0.000003    0.000000    0.000000
    7.689538    1.773097    1.891671    1.847569    0.000008    0.000000    0.000000
    7.732258    1.728893    1.851636    1.805142    0.000011    0.000000    0.000000
    7.774977    1.693309    1.808709    1.765546    0.000013    0.000000    0.000000
    7.817697    1.666524    1.764165    1.728370    0.000013    0.000000    0.000000
    7.860417    1.647976    1.720014    1.693796    0.000011    0.000000    0.000000
    7.903136    1.636336    1.678457    1.662053    0.000009    0.000000    0.000000
    7.945856    1.629726    1.641375    1.632845    0.000008    0.000000    0.000000
    7.988576    1.626090    1.609909    1.605151    0.000007    0.000000    0.000000
    8.031295    1.623459    1.584227    1.577546    0.000007    0.000000    0.000000
    8.074015    1.620054    1.563507    1.548826    0.000008    0.000000    0.000000
    8.116735    1.614209    1.546154    1.518551    0.000008    0.000000    0.000000
    8.159454    1.604330    1.530185    1.487164    0.000007    0.000000    0.000000
    8.202174    1.589010    1.513717    1.455662    0.000006    0.000000    0.000000
    8.244894    1.567389    1.495455    1.425058    0.000005    0.000000    0.000000
    8.287613    1.539583    1.475013    1.395946    0.000005    0.000000    0.000000
    8.330333    1.506895    1.452957    1.368383    0.000006    0.000000    0.000000
    8.373052    1.471591    1.430544    1.342049    0.000008    0.000000    0.000000
    8.415772    1.436277    1.409274    1.316568    0.000011    0.000000    0.000000
    8.458492    1.403203    1.390434    1.291808    0.000013    0.000000    0.000000
    8.501211    1.373874    1.374814    1.268033    0.000014    0.000000    0.000000
    8.543931    1.349105    1.362633    1.245798    0.000013    0.000000    0.000000
    8.586651    1.329367    1.353609    1.225640    0.000012    0.000000    0.000000
    8.629370    1.315093    1.347135    1.207650    0.000008    0.000000    0.000000
    8.672090    1.306725    1.342514    1.191216    0.000005    0.000000    0.000000
    8.714810    1.304490    1.339237    1.175134    0.000002    0.000000    0.000000
    8.757529    1.308080    1.337166    1.158100    0.000001    0.000000    0.000000
    8.800249    1.316418    1.336511    1.139320    0.000001    0.000000    0.000000
    8.842969    1.327606    1.337463    1.118903    0.000003    0.000000    0.000000
    8.885688    1.339062    1.339618    1.097825    0.000007    0.000000    0.000000
    8.928408    1.347825    1.341515    1.077513    0.000011    0.000000    0.000000
    8.971128    1.351034    1.340684    1.059314    0.000015    0.000000    0.000000
    9.013847    1.346609    1.334416    1.044092    0.000019    0.000000    0.000000
    9.056567    1.333957    1.321026    1.032056    0.000020    0.000000    0.000000
    9.099287    1.314443    1.300968    1.022772    0.000020    0.000000    0.000000
    9.142006    1.291209    1.277102    1.015227    0.000017    0.000000    0.000000
    9.184726    1.268196    1.253779    1.007954    0.000014    0.000000    0.000000
    9.227446    1.248635    1.235038    0.999276    0.000009    0.000000    0.000000
    9.270165    1.233706    1.222835    0.987740    0.000006    0.000000    0.000000
    9.312885    1.222052    1.216207    0.972657    0.000005    0.000000    0.000000
    9.355605    1.210525    1.211846    0.954481    0.000006    0.000000    0.000000
    9.398324    1.195809    1.205740    0.934801    0.000009    0.000000    0.000000
    9.441044    1.176135    1.195013    0.915880    0.000013    0.000000    0.000000
    9.483764    1.152229    1.179059    0.899949    0.000017    0.000000    0.000000
    9.526483    1.127109    1.159552    0.888592    0.000019    0.000000    0.000000
    9.569203    1.104904    1.139537    0.882442    0.000020    0.000000    0.000000
    9.611922    1.089318    1.122134    0.881255    0.000019    0.000000    0.000000
    9.654642    1.082373    1.109433    0.884182    0.000018    0.000000    0.000000
    9.697362    1.083876    1.101913    0.890129    0.000017    0.000000    0.000000
    9.740081    1.091688    1.098543    0.898065    0.000017    0.000000    0.000000
    9.782801    1.102684    1.097478    0.907278    0.000018    0.000000    0.000000
    9.825521    1.113983    1.097092    0.917537    0.000021    0.000000    0.000000
    9.868240    1.123957    1.096876    0.929088    0.000024    0.000000    0.000000
