#  frequency dependent      REAL DIELECTRIC FUNCTION (independent particle, no local field effects)
#     E(ev)      X         Y         Z        XY        YZ        ZX
#  --------------------------------------------------------------------------------------
    0.000000   87.314007   87.786654  114.532634   -0.000201    0.000000    0.000000
    0.042720   85.988818   86.313891  113.360940   -0.000265    0.000000    0.000000
    0.085439   82.219066   82.170431  110.005824   -0.000418    0.000000    0.000000
    0.128159   76.575136   76.098014  104.923486   -0.000564    0.000000    0.000000
    0.170879   69.862434   69.087662   98.793032   -0.000603    0.000000    0.000000
    0.213598   62.939878   62.112055   92.393909   -0.000482    0.000000    0.000000
    0.256318   56.538990   55.905155   86.457281   -0.000211    0.000000    0.000000
    0.299038   51.140811   50.858933   81.534813    0.000142    0.000000    0.000000
    0.341757   46.945535   47.050200   77.932614    0.000489    0.000000    0.000000
    0.384477   43.930955   44.354312   75.725441    0.000762    0.000000    0.000000
    0.427197   41.954784   42.576103   74.821155    0.000928    0.000000    0.000000
    0.469916   40.844890   41.538698   75.017172    0.000994    0.000000    0.000000
    0.512636   40.442657   41.109000   76.008020    0.000986    0.000000    0.000000
    0.555356   40.601655   41.176761   77.352451    0.000939    0.000000    0.000000
    0.598075   41.170245   41.624200   78.455218    0.000872    0.000000    0.000000
    0.640795   41.987634   42.315309   78.625997    0.000795    0.000000    0.000000
    0.683514   42.902431   43.113403   77.227253    0.000707    0.000000    0.000000
    0.726234   43.800675   43.912686   73.859343    0.000610    0.000000    0.000000
    0.768954   44.624494   44.661776   68.494146    0.000509    0.000000    0.000000
    0.811673   45.369448   45.365511   61.487718    0.000417    0.000000    0.000000
    0.854393   46.064876   46.064521   53.469865    0.000348    0.000000    0.000000
    0.897113   46.749163   46.804880   45.167243    0.000313    0.000000    0.000000
    0.939832   47.451283   47.611350   37.239843    0.000309    0.000000    0.000000
    0.982552   48.182244   48.473650   30.181771    0.000326    0.000000    0.000000
    1.025272   48.932280   49.347566   24.295259    0.000350    0.000000    0.000000
    1.067991   49.670680   50.167170   19.714892    0.000365    0.000000    0.000000
    1.110711   50.348061   50.863428   16.450111    0.000366    0.000000    0.000000
    1.153431   50.904215   51.382459   14.424912    0.000354    0.000000    0.000000
    1.196150   51.284832   51.698920   13.505688    0.000333    0.000000    0.000000
    1.238870   51.462912   51.818813   13.517687    0.000302    0.000000    0.000000
    1.281590   51.455323   51.772126   14.255827    0.000259    0.000000    0.000000
    1.324309   51.323333   51.598262   15.495320    0.000197    0.000000    0.000000
    1.367029   51.151889   51.330699   17.005015    0.000111    0.000000    0.000000
    1.409749   51.012967   50.987494   18.562710    0.000000    0.000000    0.000000
    1.452468   50.928799   50.569459   19.970079   -0.000126    0.000000    0.000000
    1.495188   50.851250   50.065406   21.065148   -0.000251    0.000000    0.000000
    1.537908   50.669442   49.459651   21.732305   -0.000359    0.000000    0.000000
    1.580627   50.244071   48.737704   21.908831   -0.000443    0.000000    0.000000
    1.623347   49.455295   47.887856   21.586945   -0.000503    0.000000    0.000000
    1.666067   48.244239   46.898868   20.808242   -0.000550    0.000000    0.000000
    1.708786   46.630066   45.755579   19.649619   -0.000599    0.000000    0.000000
    1.751506   44.694321   44.433809   18.203089   -0.000659    0.000000    0.000000
    1.794226   42.539113   42.895439   16.556137   -0.000727    0.000000    0.000000
    1.836945   40.237292   41.085691   14.778765   -0.000787    0.000000    0.000000
    1.879665   37.797809   38.934757   12.920235   -0.000814    0.000000    0.000000
    1.922384   35.161254   36.367603   11.012247   -0.000784    0.000000    0.000000
    1.965104   32.229332   33.323205    9.073191   -0.000689    0.000000    0.000000
    2.007824   28.915993   29.781686    7.111319   -0.000542    0.000000    0.000000
    2.050543   25.199814   25.790097    5.129645   -0.000377    0.000000    0.000000
    2.093263   21.156082   21.475342    3.136260   -0.000233    0.000000    0.000000
    2.135983   16.954273   17.034256    1.158248   -0.000145    0.000000    0.000000
    2.178702   12.820746   12.699910   -0.749183   -0.000127    0.000000    0.000000
    2.221422    8.980876    8.694510   -2.507546   -0.000172    0.000000    0.000000
    2.264142    5.604220    5.186191   -4.035138   -0.000260    0.000000    0.000000
    2.306861    2.772828    2.264118   -5.273129   -0.000367    0.000000    0.000000
    2.349581    0.481147   -0.063250   -6.203076   -0.000476    0.000000    0.000000
    2.392301   -1.339168   -1.851881   -6.846435   -0.000575    0.000000    0.000000
    2.435020   -2.784593   -3.197455   -7.246947   -0.000658    0.000000    0.000000
    2.477740   -3.948869   -4.209729   -7.447341   -0.000719    0.000000    0.000000
    2.520460   -4.902803   -4.989785   -7.473087   -0.000750    0.000000    0.000000
    2.563179   -5.685491   -5.612336   -7.330898   -0.000749    0.000000    0.000000
    2.605899   -6.305741   -6.116531   -7.020561   -0.000722    0.000000    0.000000
    2.648619   -6.753210   -6.509481   -6.552044   -0.000679    0.000000    0.000000
    2.691338   -7.018444   -6.783944   -5.958428   -0.000640    0.000000    0.000000
    2.734058   -7.117498   -6.945339   -5.298981   -0.000628    0.000000    0.000000
    2.776778   -7.112422   -7.037064   -4.651447   -0.000662    0.000000    0.000000
    2.819497   -7.117022   -7.151334   -4.097218   -0.000749    0.000000    0.000000
    2.862217   -7.280962   -7.417617   -3.704518   -0.000882    0.000000    0.000000
    2.904937   -7.753610   -7.969983   -3.514768   -0.001032    0.000000    0.000000
    2.947656   -8.638668   -8.903837   -3.535495   -0.001158    0.000000    0.000000
    2.990376   -9.956655  -10.238424   -3.741163   -0.001219    0.000000    0.000000
    3.033096  -11.630672  -11.900310   -4.080763   -0.001186    0.000000    0.000000
    3.075815  -13.502335  -13.735946   -4.489288   -0.001057    0.000000    0.000000
    3.118535  -15.371724  -15.549389   -4.899769   -0.000852    0.000000    0.000000
    3.161255  -17.046012  -17.151357   -5.253729   -0.000607    0.000000    0.000000
    3.203974  -18.379107  -18.401727   -5.509279   -0.000363    0.000000    0.000000
    3.246694  -19.291974  -19.232286   -5.646684   -0.000150    0.000000    0.000000
    3.289413  -19.772432  -19.646417   -5.670302    0.000018    0.000000    0.000000
    3.332133  -19.861653  -19.701496   -5.605137    0.000139    0.000000    0.000000
    3.374853  -19.635415  -19.484234   -5.488007    0.000222    0.000000    0.000000
    3.417572  -19.186061  -19.087650   -5.356062    0.000277    0.000000    0.000000
    3.460292  -18.607692  -18.594217   -5.237783    0.000315    0.000000    0.000000
    3.503012  -17.984881  -18.067256   -5.150791    0.000345    0.000000    0.000000
    3.545731  -17.384998  -17.549048   -5.107092    0.000373    0.000000    0.000000
    3.588451  -16.853953  -17.064060   -5.121983    0.000401    0.000000    0.000000
    3.631171  -16.414696  -16.624092   -5.221243    0.000430    0.000000    0.000000
    3.673890  -16.068096  -16.232573   -5.442231    0.000457    0.000000    0.000000
    3.716610  -15.795827  -15.886519   -5.827792    0.000476    0.000000    0.000000
    3.759330  -15.565759  -15.576651   -6.414672    0.000481    0.000000    0.000000
    3.802049  -15.339734  -15.287605   -7.220056    0.000468    0.000000    0.000000
    3.844769  -15.082885  -14.999974   -8.229925    0.000436    0.000000    0.000000
    3.887489  -14.772140  -14.694268   -9.392929    0.000392    0.000000    0.000000
    3.930208  -14.400889  -14.355545  -10.622713    0.000341    0.000000    0.000000
    3.972928  -13.978222  -13.976489  -11.810339    0.000294    0.000000    0.000000
    4.015648  -13.523546  -13.558374  -12.845181    0.000258    0.000000    0.000000
    4.058367  -13.059116  -13.109992  -13.638799    0.000235    0.000000    0.000000
    4.101087  -12.603791  -12.645522  -14.143764    0.000224    0.000000    0.000000
    4.143807  -12.169541  -12.181802  -14.360442    0.000221    0.000000    0.000000
    4.186526  -11.761031  -11.735101  -14.329916    0.000218    0.000000    0.000000
    4.229246  -11.376883  -11.317718  -14.117227    0.000212    0.000000    0.000000
    4.271966  -11.012273  -10.935648  -13.792458    0.000201    0.000000    0.000000
    4.314685  -10.662572  -10.588891  -13.416580    0.000188    0.000000    0.000000
    4.357405  -10.327517  -10.274668  -13.034914    0.000177    0.000000    0.000000
    4.400125  -10.014769   -9.992460  -12.676879    0.000172    0.000000    0.000000
    4.442844   -9.740822   -9.748097  -12.358729    0.000176    0.000000    0.000000
    4.485564   -9.527679   -9.554364  -12.086464    0.000189    0.000000    0.000000
    4.528283   -9.395974   -9.427455  -11.857274    0.000210    0.000000    0.000000
    4.571003   -9.357119   -9.380449  -11.660611    0.000235    0.000000    0.000000
    4.613723   -9.408050   -9.417038  -11.480053    0.000259    0.000000    0.000000
    4.656442   -9.530591   -9.527688  -11.296971    0.000279    0.000000    0.000000
    4.699162   -9.695553   -9.689741  -11.095284    0.000290    0.000000    0.000000
    4.741882   -9.868842   -9.870930  -10.865772    0.000289    0.000000    0.000000
    4.784601  -10.017518  -10.035066  -10.608107    0.000275    0.000000    0.000000
    4.827321  -10.114052  -10.148366  -10.330179    0.000247    0.000000    0.000000
    4.870041  -10.139013  -10.185135  -10.045273    0.000208    0.000000    0.000000
    4.912760  -10.082675  -10.131775   -9.768182    0.000161    0.000000    0.000000
    4.955480   -9.945806   -9.988462   -9.511440    0.000112    0.000000    0.000000
    4.998200   -9.739550   -9.768367   -9.282233    0.000067    0.000000    0.000000
    5.040919   -9.483657   -9.494722   -9.081144    0.000033    0.000000    0.000000
    5.083639   -9.203096   -9.196220   -8.902939    0.000014    0.000000    0.000000
    5.126359   -8.923508   -8.901746   -8.739297    0.000014    0.000000    0.000000
    5.169078   -8.666510   -8.635082   -8.582438    0.000031    0.000000    0.000000
    5.211798   -8.445814   -8.410827   -8.427970    0.000059    0.000000    0.000000
    5.254518   -8.265429   -8.232359   -8.275699    0.000088    0.000000    0.000000
    5.297237   -8.120171   -8.092552   -8.128308    0.000110    0.000000    0.000000
    5.339957   -7.998497   -7.977151   -7.988775    0.000117    0.000000    0.000000
    5.382677   -7.886639   -7.869765   -7.857825    0.000109    0.000000    0.000000
    5.425396   -7.772833   -7.756823   -7.732625    0.000089    0.000000    0.000000
    5.468116   -7.650131   -7.630942   -7.606959    0.000065    0.000000    0.000000
    5.510836   -7.517461   -7.491786   -7.472647    0.000045    0.000000    0.000000
    5.553555   -7.378351   -7.344519   -7.321839    0.000034    0.000000    0.000000
    5.596275   -7.238539   -7.196875   -7.149229    0.000036    0.000000    0.000000
    5.638995   -7.103047   -7.055867   -6.953775    0.000045    0.000000    0.000000
    5.681714   -6.974076   -6.925416   -6.739271    0.000058    0.000000    0.000000
    5.724434   -6.850186   -6.805328   -6.513749    0.000070    0.000000    0.000000
    5.767153   -6.727255   -6.691837   -6.287897    0.000075    0.000000    0.000000
    5.809873   -6.600529   -6.579394   -6.073155    0.000074    0.000000    0.000000
    5.852593   -6.466981   -6.463068   -5.879861    0.000067    0.000000    0.000000
    5.895312   -6.326833   -6.340495   -5.715672    0.000058    0.000000    0.000000
    5.938032   -6.183795   -6.212922   -5.584236    0.000050    0.000000    0.000000
    5.980752   -6.043903   -6.084636   -5.484178    0.000044    0.000000    0.000000
    6.023471   -5.913945   -5.961352   -5.408987    0.000041    0.000000    0.000000
    6.066191   -5.799874   -5.848191   -5.348122    0.000041    0.000000    0.000000
    6.108911   -5.705851   -5.748208   -5.289602    0.000041    0.000000    0.000000
    6.151630   -5.633702   -5.662152   -5.223401    0.000040    0.000000    0.000000
    6.194350   -5.582535   -5.589056   -5.144671    0.000036    0.000000    0.000000
    6.237070   -5.548519   -5.527326   -5.055418    0.000030    0.000000    0.000000
    6.279789   -5.525071   -5.475405   -4.963816    0.000023    0.000000    0.000000
    6.322509   -5.503903   -5.431773   -4.881181    0.000017    0.000000    0.000000
    6.365229   -5.477057   -5.394643   -4.817656    0.000013    0.000000    0.000000
    6.407948   -5.439034   -5.361601   -4.778220    0.000013    0.000000    0.000000
    6.450668   -5.388208   -5.329694   -4.760706    0.000017    0.000000    0.000000
    6.493388   -5.326446   -5.295755   -4.756585    0.000025    0.000000    0.000000
    6.536107   -5.257260   -5.256733   -4.754147    0.000036    0.000000    0.000000
    6.578827   -5.183390   -5.209721   -4.742522    0.000046    0.000000    0.000000
    6.621547   -5.105226   -5.151842   -4.715016    0.000053    0.000000    0.000000
    6.664266   -5.020703   -5.080340   -4.670511    0.000056    0.000000    0.000000
    6.706986   -4.926709   -4.993188   -4.612712    0.000054    0.000000    0.000000
    6.749706   -4.821052   -4.890036   -4.547740    0.000047    0.000000    0.000000
    6.792425   -4.704126   -4.773118   -4.481287    0.000038    0.000000    0.000000
    6.835145   -4.579391   -4.647413   -4.416479    0.000030    0.000000    0.000000
    6.877865   -4.452738   -4.519790   -4.353258    0.000026    0.000000    0.000000
    6.920584   -4.330928   -4.397385   -4.289306    0.000027    0.000000    0.000000
    6.963304   -4.219881   -4.285907   -4.221819    0.000033    0.000000    0.000000
    7.006024   -4.123483   -4.188462   -4.149201    0.000042    0.000000    0.000000
    7.048743   -4.043255   -4.105462   -4.071882    0.000053    0.000000    0.000000
    7.091463   -3.978689   -4.035227   -3.992251    0.000064    0.000000    0.000000
    7.134182   -3.927818   -3.974801   -3.913740    0.000073    0.000000    0.000000
    7.176902   -3.887579   -3.920563   -3.839644    0.000078    0.000000    0.000000
    7.219622   -3.853940   -3.868495   -3.771986    0.000078    0.000000    0.000000
    7.262341   -3.822145   -3.814445   -3.710864    0.000074    0.000000    0.000000
    7.305061   -3.787235   -3.754740   -3.654395    0.000065    0.000000    0.000000
    7.347781   -3.744965   -3.687034   -3.599368    0.000055    0.000000    0.000000
    7.390500   -3.692588   -3.610981   -3.542204    0.000046    0.000000    0.000000
    7.433220   -3.629240   -3.528413   -3.479986    0.000040    0.000000    0.000000
    7.475940   -3.555727   -3.442706   -3.411177    0.000039    0.000000    0.000000
    7.518659   -3.473853   -3.357709   -3.335849    0.000041    0.000000    0.000000
    7.561379   -3.385652   -3.276601   -3.255511    0.000045    0.000000    0.000000
    7.604099   -3.292817   -3.201096   -3.172515    0.000049    0.000000    0.000000
    7.646818   -3.196567   -3.131164   -3.089286    0.000051    0.000000    0.000000
    7.689538   -3.097837   -3.065326   -3.007590    0.000051    0.000000    0.000000
    7.732258   -2.997688   -3.001228   -2.928164    0.000048    0.000000    0.000000
    7.774977   -2.897629   -2.936389   -2.850852    0.000044    0.000000    0.000000
    7.817697   -2.799607   -2.868815   -2.775159    0.000040    0.000000    0.000000
    7.860417   -2.705744   -2.797452   -2.700919    0.000038    0.000000    0.000000
    7.903136   -2.617897   -2.722345   -2.628581    0.000037    0.000000    0.000000
    7.945856   -2.537334   -2.644547   -2.559007    0.000037    0.000000    0.000000
    7.988576   -2.464601   -2.565868   -2.492868    0.000037    0.000000    0.000000
    8.031295   -2.399679   -2.488408   -2.430104    0.000037    0.000000    0.000000
    8.074015   -2.342139   -2.414080   -2.369799    0.000037    0.000000    0.000000
    8.116735   -2.291243   -2.344171   -2.310524    0.000036    0.000000    0.000000
    8.159454   -2.245875   -2.279078   -2.250969    0.000035    0.000000    0.000000
    8.202174   -2.204360   -2.218181   -2.190447    0.000035    0.000000    0.000000
    8.244894   -2.164366   -2.160072   -2.129008    0.000036    0.000000    0.000000
    8.287613   -2.123209   -2.102955   -2.067205    0.000037    0.000000    0.000000
    8.330333   -2.078378   -2.045172   -2.005656    0.000039    0.000000    0.000000
    8.373052   -2.028220   -1.985685   -1.944712    0.000039    0.000000    0.000000
    8.415772   -1.972283   -1.924274   -1.884331    0.000039    0.000000    0.000000
    8.458492   -1.911223   -1.861454   -1.824169    0.000037    0.000000    0.000000
    8.501211   -1.846276   -1.798209   -1.763896    0.000034    0.000000    0.000000
    8.543931   -1.778735   -1.735663   -1.703482    0.000031    0.000000    0.000000
    8.586651   -1.709696   -1.674802   -1.643427    0.000028    0.000000    0.000000
    8.629370   -1.640163   -1.616286   -1.584638    0.000027    0.000000    0.000000
    8.672090   -1.571327   -1.560361   -1.528028    0.000027    0.000000    0.000000
    8.714810   -1.504740   -1.506926   -1.473973    0.000029    0.000000    0.000000
    8.757529   -1.442272   -1.455778   -1.421993    0.000033    0.000000    0.000000
    8.800249   -1.385824   -1.407004   -1.370843    0.000037    0.000000    0.000000
    8.842969   -1.336944   -1.361260   -1.319007    0.000040    0.000000    0.000000
    8.885688   -1.296462   -1.319722   -1.265329    0.000042    0.000000    0.000000
    8.928408   -1.264132   -1.283531   -1.209429    0.000043    0.000000    0.000000
    8.971128   -1.238397   -1.252914   -1.151771    0.000041    0.000000    0.000000
    9.013847   -1.216439   -1.226419   -1.093414    0.000038    0.000000    0.000000
    9.056567   -1.194539   -1.200871   -1.035676    0.000034    0.000000    0.000000
    9.099287   -1.169023   -1.172298   -0.979819    0.000030    0.000000    0.000000
    9.142006   -1.137430   -1.137504   -0.926828    0.000026    0.000000    0.000000
    9.184726   -1.099480   -1.095582   -0.877141    0.000024    0.000000    0.000000
    9.227446   -1.057208   -1.048454   -0.830424    0.000024    0.000000    0.000000
    9.270165   -1.014076   -1.000084   -0.785435    0.000027    0.000000    0.000000
    9.312885   -0.973323   -0.954662   -0.740182    0.000031    0.000000    0.000000
    9.355605   -0.936354   -0.914717   -0.692456    0.000035    0.000000    0.000000
    9.398324   -0.902025   -0.880062   -0.640519    0.000038    0.000000    0.000000
    9.441044   -0.867124   -0.848114   -0.583687    0.000039    0.000000    0.000000
    9.483764   -0.827855   -0.815196   -0.522487    0.000038    0.000000    0.000000
    9.526483   -0.781543   -0.778165   -0.458376    0.000036    0.000000    0.000000
    9.569203   -0.727734   -0.735554   -0.393192    0.000033    0.000000    0.000000
    9.611922   -0.668378   -0.687902   -0.328637    0.000031    0.000000    0.000000
    9.654642   -0.607067   -0.637246   -0.265922    0.000030    0.000000    0.000000
    9.697362   -0.547769   -0.586212   -0.205646    0.000031    0.000000    0.000000
    9.740081   -0.493534   -0.536913   -0.147821    0.000032    0.000000    0.000000
    9.782801   -0.445640   -0.490216   -0.092028    0.000034    0.000000    0.000000
    9.825521   -0.403509   -0.445559   -0.037665    0.000035    0.000000    0.000000
    9.868240   -0.365360   -0.401540    0.015723    0.000034    0.000000    0.000000
