#  frequency dependent IMAGINARY DIELECTRIC FUNCTION (independent particle, no local field effects)
#     E(ev)      X         Y         Z        XY        YZ        ZX
#  --------------------------------------------------------------------------------------
    0.000000    0.000000    0.000000    0.000000    0.000000    0.000000    0.000000
    0.042812    9.759099    9.759099    0.088910    0.000000    0.000000    0.000000
    0.085624   20.266000   20.266000    0.193764    0.000000    0.000000    0.000000
    0.128437   32.133165   32.133165    0.334225    0.000000    0.000000    0.000000
    0.171249   45.223556   45.223556    0.530107    0.000000    0.000000    0.000000
    0.214061   57.190585   57.190585    0.777222    0.000000    0.000000    0.000000
    0.256873   64.117518   64.117518    1.028252    0.000000    0.000000    0.000000
    0.299685   64.432596   64.432596    1.212539    0.000000    0.000000    0.000000
    0.342498   59.329032   59.329032    1.272033    0.000000    0.000000    0.000000
    0.385310   51.537455   51.537455    1.224539    0.000000    0.000000   -0.000000
    0.428122   43.521683   43.521683    1.132033    0.000000    0.000000   -0.000000
    0.470934   36.321680   36.321680    1.037326    0.000000    0.000000    0.000000
    0.513746   30.233267   30.233267    0.960537    0.000000    0.000000    0.000000
    0.556559   25.576714   25.576714    0.911785    0.000000    0.000000    0.000000
    0.599371   22.295327   22.295327    0.891860    0.000000    0.000000    0.000000
    0.642183   19.996493   19.996493    0.893330    0.000000    0.000000    0.000000
    0.684995   18.307404   18.307403    0.906028    0.000000    0.000000    0.000000
    0.727807   16.971983   16.971983    0.920613    0.000000    0.000000    0.000000
    0.770620   15.851050   15.851050    0.930415    0.000000    0.000000   -0.000000
    0.813432   14.905852   14.905852    0.932160    0.000000    0.000000   -0.000000
    0.856244   14.113631   14.113631    0.925367    0.000000    0.000000   -0.000000
    0.899056   13.394593   13.394593    0.911415    0.000000    0.000000   -0.000000
    0.941868   12.651877   12.651877    0.892384    0.000000    0.000000   -0.000000
    0.984681   11.814650   11.814650    0.870018    0.000000   -0.000000   -0.000000
    1.027493   10.847002   10.847002    0.846262    0.000000   -0.000000   -0.000000
    1.070305    9.801203    9.801203    0.824569    0.000000   -0.000000   -0.000000
    1.113117    8.833191    8.833191    0.806633    0.000000   -0.000000   -0.000000
    1.155929    8.016488    8.016488    0.790586    0.000000   -0.000000    0.000000
    1.198742    7.328728    7.328728    0.774998   -0.000000   -0.000000    0.000000
    1.241554    6.729131    6.729131    0.759091   -0.000000   -0.000000    0.000000
    1.284366    6.185978    6.185978    0.742475   -0.000000   -0.000000    0.000000
    1.327178    5.683030    5.683030    0.725853   -0.000000   -0.000000   -0.000000
    1.369991    5.229995    5.229995    0.710871   -0.000000   -0.000000   -0.000000
    1.412803    4.856815    4.856815    0.698623    0.000000   -0.000000   -0.000000
    1.455615    4.575262    4.575262    0.685804    0.000000   -0.000000    0.000000
    1.498427    4.378274    4.378274    0.666079    0.000000   -0.000000    0.000000
    1.541239    4.255006    4.255006    0.639543    0.000000   -0.000000    0.000000
    1.584052    4.194837    4.194837    0.611213    0.000000   -0.000000    0.000000
    1.626864    4.189074    4.189074    0.586348    0.000000   -0.000000    0.000000
    1.669676    4.230743    4.230743    0.567976    0.000000   -0.000000    0.000000
    1.712488    4.312472    4.312472    0.556601    0.000000    0.000000    0.000000
    1.755300    4.425452    4.425452    0.552330    0.000000    0.000000    0.000000
    1.798113    4.560065    4.560065    0.554404    0.000000    0.000000    0.000000
    1.840925    4.710413    4.710413    0.560568    0.000000    0.000000   -0.000000
    1.883737    4.879727    4.879727    0.569974    0.000000    0.000000   -0.000000
    1.926549    5.077482    5.077482    0.583394    0.000000    0.000000   -0.000000
    1.969361    5.313211    5.313211    0.599791    0.000000    0.000000   -0.000000
    2.012174    5.595803    5.595803    0.614128    0.000000    0.000000   -0.000000
    2.054986    5.941582    5.941582    0.620567    0.000000    0.000000   -0.000000
    2.097798    6.379947    6.379947    0.617035    0.000000    0.000000   -0.000000
    2.140610    6.957630    6.957630    0.603937    0.000000   -0.000000    0.000000
    2.183422    7.714089    7.714088    0.587356    0.000000   -0.000000    0.000000
    2.226235    8.545218    8.545218    0.575542    0.000000   -0.000000    0.000000
    2.269047    9.130256    9.130256    0.567187    0.000000   -0.000000    0.000000
    2.311859    9.236733    9.236733    0.551516    0.000000   -0.000000    0.000000
    2.354671    8.910613    8.910613    0.526527    0.000000   -0.000000   -0.000000
    2.397483    8.307985    8.307985    0.501470    0.000000   -0.000000   -0.000000
    2.440296    7.554598    7.554598    0.481937    0.000000   -0.000000   -0.000000
    2.483108    6.732075    6.732075    0.467686    0.000000   -0.000000   -0.000000
    2.525920    5.915201    5.915201    0.456727    0.000000   -0.000000   -0.000000
    2.568732    5.183890    5.183890    0.447501    0.000000   -0.000000   -0.000000
    2.611544    4.612219    4.612219    0.439305    0.000000   -0.000000   -0.000000
    2.654357    4.221698    4.221698    0.431918    0.000000   -0.000000   -0.000000
    2.697169    3.907846    3.907846    0.425308    0.000000   -0.000000   -0.000000
    2.739981    3.558481    3.558481    0.419301    0.000000   -0.000000   -0.000000
    2.782793    3.243106    3.243106    0.413443    0.000000   -0.000000   -0.000000
    2.825605    3.019890    3.019890    0.407385    0.000000    0.000000   -0.000000
    2.868418    2.871834    2.871834    0.401035    0.000000    0.000000   -0.000000
    2.911230    2.772824    2.772824    0.394455    0.000000    0.000000   -0.000000
    2.954042    2.705285    2.705285    0.387965    0.000000    0.000000   -0.000000
    2.996854    2.655180    2.655180    0.382598   -0.000000    0.000000   -0.000000
    3.039666    2.604810    2.604810    0.380263   -0.000000    0.000000   -0.000000
    3.082479    2.533947    2.533946    0.381232    0.000000    0.000000   -0.000000
    3.125291    2.431166    2.431166    0.377609    0.000000    0.000000   -0.000000
    3.168103    2.301862    2.301862    0.360861    0.000000    0.000000   -0.000000
    3.210915    2.157688    2.157688    0.339971    0.000000    0.000000   -0.000000
    3.253727    2.007611    2.007611    0.323047    0.000000    0.000000   -0.000000
    3.296540    1.857330    1.857330    0.310345    0.000000    0.000000   -0.000000
    3.339352    1.710438    1.710438    0.300507    0.000000    0.000000   -0.000000
    3.382164    1.569178    1.569178    0.292541    0.000000    0.000000   -0.000000
    3.424976    1.434797    1.434797    0.285896    0.000000    0.000000   -0.000000
    3.467788    1.308137    1.308137    0.280289    0.000000    0.000000    0.000000
    3.510601    1.193978    1.193978    0.275440    0.000000    0.000000    0.000000
    3.553413    1.100660    1.100660    0.271004    0.000000    0.000000    0.000000
    3.596225    1.028355    1.028355    0.266912    0.000000    0.000000    0.000000
    3.639037    0.971698    0.971698    0.263346    0.000000    0.000000    0.000000
    3.681849    0.926139    0.926139    0.260520    0.000000    0.000000   -0.000000
    3.724662    0.888614    0.888614    0.258497    0.000000    0.000000   -0.000000
    3.767474    0.856874    0.856874    0.257062    0.000000   -0.000000   -0.000000
    3.810286    0.829267    0.829267    0.255804    0.000000   -0.000000   -0.000000
    3.853098    0.804631    0.804631    0.254423    0.000000   -0.000000   -0.000000
    3.895911    0.782163    0.782163    0.252870    0.000000    0.000000   -0.000000
    3.938723    0.761248    0.761248    0.251224    0.000000    0.000000   -0.000000
    3.981535    0.741232    0.741232    0.249585    0.000000    0.000000   -0.000000
    4.024347    0.721453    0.721453    0.248046    0.000000    0.000000   -0.000000
    4.067159    0.701746    0.701746    0.246679    0.000000    0.000000   -0.000000
    4.109972    0.682437    0.682437    0.245528    0.000000    0.000000   -0.000000
    4.152784    0.663919    0.663919    0.244604    0.000000    0.000000   -0.000000
    4.195596    0.646377    0.646377    0.243906    0.000000    0.000000    0.000000
    4.238408    0.629746    0.629746    0.243458    0.000000    0.000000    0.000000
    4.281220    0.613858    0.613858    0.243311    0.000000    0.000000    0.000000
    4.324033    0.598579    0.598579    0.243519    0.000000    0.000000    0.000000
    4.366845    0.583791    0.583791    0.244132    0.000000   -0.000000    0.000000
    4.409657    0.569394    0.569394    0.245196    0.000000   -0.000000    0.000000
    4.452469    0.555314    0.555314    0.246750    0.000000   -0.000000    0.000000
    4.495281    0.541494    0.541494    0.248784    0.000000   -0.000000    0.000000
    4.538094    0.527887    0.527887    0.251215    0.000000   -0.000000    0.000000
    4.580906    0.514443    0.514443    0.253932    0.000000    0.000000    0.000000
    4.623718    0.501103    0.501103    0.256841    0.000000    0.000000    0.000000
    4.666530    0.487790    0.487790    0.259879    0.000000    0.000000    0.000000
    4.709342    0.474389    0.474389    0.263010    0.000000    0.000000    0.000000
    4.752155    0.460714    0.460714    0.266206    0.000000    0.000000    0.000000
    4.794967    0.446456    0.446456    0.269448    0.000000    0.000000    0.000000
    4.837779    0.431102    0.431102    0.272741    0.000000    0.000000    0.000000
    4.880591    0.413818    0.413818    0.276187    0.000000    0.000000    0.000000
    4.923403    0.393495    0.393495    0.279980    0.000000    0.000000    0.000000
    4.966216    0.369584    0.369584    0.284196    0.000000    0.000000    0.000000
    5.009028    0.343172    0.343172    0.288783    0.000000    0.000000    0.000000
    5.051840    0.316465    0.316465    0.293657    0.000000    0.000000    0.000000
    5.094652    0.291903    0.291903    0.298742    0.000000    0.000000    0.000000
    5.137464    0.271367    0.271367    0.303982    0.000000    0.000000    0.000000
    5.180277    0.255155    0.255155    0.309347    0.000000    0.000000    0.000000
    5.223089    0.242250    0.242250    0.314818    0.000000    0.000000    0.000000
    5.265901    0.231494    0.231494    0.320386    0.000000    0.000000    0.000000
    5.308713    0.222121    0.222121    0.326069    0.000000    0.000000    0.000000
    5.351525    0.213690    0.213690    0.331914    0.000000    0.000000    0.000000
    5.394338    0.205935    0.205935    0.337981    0.000000    0.000000    0.000000
    5.437150    0.198679    0.198679    0.344349    0.000000    0.000000    0.000000
    5.479962    0.191805    0.191805    0.351149    0.000000   -0.000000    0.000000
    5.522774    0.185248    0.185248    0.358570    0.000000   -0.000000    0.000000
    5.565586    0.178981    0.178981    0.366665    0.000000   -0.000000    0.000000
    5.608399    0.172988    0.172988    0.375260    0.000000   -0.000000    0.000000
    5.651211    0.167266    0.167266    0.384264    0.000000   -0.000000    0.000000
    5.694023    0.161821    0.161821    0.393737    0.000000   -0.000000   -0.000000
    5.736835    0.156679    0.156679    0.403782    0.000000   -0.000000   -0.000000
    5.779647    0.151887    0.151887    0.414484    0.000000   -0.000000   -0.000000
    5.822460    0.147480    0.147480    0.425852    0.000000   -0.000000   -0.000000
    5.865272    0.143443    0.143443    0.437858    0.000000   -0.000000   -0.000000
    5.908084    0.139716    0.139716    0.450561    0.000000    0.000000   -0.000000
    5.950896    0.136226    0.136226    0.464221    0.000000    0.000000   -0.000000
    5.993708    0.132891    0.132891    0.479384   -0.000000    0.000000   -0.000000
    6.036521    0.129638    0.129638    0.496847   -0.000000   -0.000000   -0.000000
    6.079333    0.126422    0.126422    0.517635   -0.000000   -0.000000   -0.000000
    6.122145    0.123242    0.123242    0.542831   -0.000000   -0.000000   -0.000000
    6.164957    0.120123    0.120123    0.572916   -0.000000   -0.000000   -0.000000
    6.207770    0.117091    0.117091    0.607115   -0.000000   -0.000000   -0.000000
    6.250582    0.114162    0.114162    0.643818   -0.000000   -0.000000   -0.000000
    6.293394    0.111334    0.111334    0.681840   -0.000000   -0.000000   -0.000000
    6.336206    0.108602    0.108602    0.720934   -0.000000   -0.000000   -0.000000
    6.379018    0.105968    0.105968    0.761468   -0.000000    0.000000   -0.000000
    6.421831    0.103438    0.103438    0.804009   -0.000000    0.000000   -0.000000
    6.464643    0.101027    0.101027    0.849218   -0.000000   -0.000000    0.000000
    6.507455    0.098762    0.098762    0.897900   -0.000000   -0.000000    0.000000
    6.550267    0.096683    0.096683    0.950887   -0.000000   -0.000000    0.000000
    6.593079    0.094864    0.094864    1.008871   -0.000000    0.000000    0.000000
    6.635892    0.093419    0.093419    1.072632   -0.000000    0.000000    0.000000
    6.678704    0.092506    0.092506    1.143431   -0.000000    0.000000   -0.000000
    6.721516    0.092229    0.092229    1.223503   -0.000000    0.000000   -0.000000
    6.764328    0.092483    0.092483    1.316950   -0.000000    0.000000   -0.000000
    6.807140    0.092977    0.092977    1.430722   -0.000000    0.000000   -0.000000
    6.849953    0.093383    0.093383    1.572938   -0.000000    0.000000   -0.000000
    6.892765    0.093356    0.093356    1.746739   -0.000000    0.000000   -0.000000
    6.935577    0.092587    0.092587    1.944333   -0.000000    0.000000   -0.000000
    6.978389    0.091132    0.091132    2.146560   -0.000000    0.000000   -0.000000
    7.021201    0.089688    0.089688    2.330341   -0.000000    0.000000   -0.000000
    7.064014    0.089155    0.089155    2.483991   -0.000000    0.000000   -0.000000
    7.106826    0.089841    0.089841    2.611894   -0.000000    0.000000   -0.000000
    7.149638    0.091607    0.091607    2.722821   -0.000000    0.000000   -0.000000
    7.192450    0.094193    0.094193    2.820265   -0.000000   -0.000000   -0.000000
    7.235262    0.097197    0.097197    2.901455   -0.000000   -0.000000   -0.000000
    7.278075    0.100177    0.100177    2.959077   -0.000000    0.000000   -0.000000
    7.320887    0.102899    0.102899    2.985450   -0.000000    0.000000    0.000000
    7.363699    0.105400    0.105400    2.981708   -0.000000    0.000000    0.000000
    7.406511    0.107820    0.107820    2.959569   -0.000000    0.000000    0.000000
    7.449323    0.110290    0.110290    2.929126   -0.000000    0.000000    0.000000
    7.492136    0.112875    0.112875    2.890774   -0.000000    0.000000    0.000000
    7.534948    0.115538    0.115538    2.839721   -0.000000    0.000000    0.000000
    7.577760    0.118156    0.118156    2.773885   -0.000000    0.000000    0.000000
    7.620572    0.120563    0.120563    2.695839   -0.000000    0.000000    0.000000
    7.663384    0.122537    0.122537    2.613106   -0.000000    0.000000    0.000000
    7.706197    0.123814    0.123814    2.534917   -0.000000    0.000000    0.000000
    7.749009    0.124271    0.124271    2.461959   -0.000000    0.000000    0.000000
    7.791821    0.124088    0.124088    2.383345   -0.000000    0.000000    0.000000
    7.834633    0.123565    0.123565    2.294036   -0.000000    0.000000    0.000000
    7.877445    0.122896    0.122896    2.203090   -0.000000    0.000000   -0.000000
    7.920258    0.122163    0.122163    2.114810   -0.000000    0.000000   -0.000000
    7.963070    0.121339    0.121339    2.022697   -0.000000    0.000000   -0.000000
    8.005882    0.120376    0.120376    1.922690    0.000000    0.000000   -0.000000
    8.048694    0.119313    0.119313    1.816442    0.000000    0.000000   -0.000000
    8.091506    0.118082    0.118082    1.705611    0.000000    0.000000   -0.000000
    8.134319    0.116258    0.116258    1.592864    0.000000    0.000000   -0.000000
    8.177131    0.112933    0.112933    1.484889    0.000000    0.000000   -0.000000
    8.219943    0.107858    0.107858    1.392307    0.000000    0.000000   -0.000000
    8.262755    0.102514    0.102514    1.320724    0.000000    0.000000   -0.000000
    8.305567    0.097890    0.097890    1.266495    0.000000    0.000000   -0.000000
    8.348380    0.094115    0.094115    1.226080    0.000000    0.000000   -0.000000
    8.391192    0.091072    0.091072    1.197097    0.000000    0.000000   -0.000000
    8.434004    0.088577    0.088577    1.176702    0.000000    0.000000   -0.000000
    8.476816    0.086438    0.086438    1.167695    0.000000    0.000000   -0.000000
    8.519628    0.084490    0.084490    1.182554   -0.000000    0.000000   -0.000000
    8.562441    0.082728    0.082728    1.240836   -0.000000    0.000000   -0.000000
    8.605253    0.081373    0.081373    1.365754   -0.000000    0.000000   -0.000000
    8.648065    0.080594    0.080594    1.577844   -0.000000    0.000000   -0.000000
    8.690877    0.080436    0.080436    1.886023   -0.000000    0.000000   -0.000000
    8.733690    0.080940    0.080940    2.279457   -0.000000    0.000000   -0.000000
    8.776502    0.082116    0.082116    2.711804   -0.000000    0.000000   -0.000000
    8.819314    0.083776    0.083776    3.093293   -0.000000   -0.000000   -0.000000
    8.862126    0.085434    0.085434    3.346035   -0.000000   -0.000000   -0.000000
    8.904938    0.086206    0.086206    3.416496   -0.000000   -0.000000   -0.000000
    8.947751    0.085549    0.085549    3.295767   -0.000000   -0.000000   -0.000000
    8.990563    0.084323    0.084323    3.071684   -0.000000   -0.000000    0.000000
    9.033375    0.083255    0.083255    2.828196   -0.000000    0.000000    0.000000
    9.076187    0.082428    0.082428    2.594983   -0.000000    0.000000    0.000000
    9.118999    0.081763    0.081763    2.373027   -0.000000    0.000000    0.000000
    9.161812    0.081178    0.081178    2.159672   -0.000000    0.000000    0.000000
    9.204624    0.080616    0.080616    1.956388   -0.000000    0.000000   -0.000000
    9.247436    0.080042    0.080042    1.763125   -0.000000    0.000000   -0.000000
    9.290248    0.079455    0.079455    1.578102   -0.000000    0.000000   -0.000000
    9.333060    0.078882    0.078882    1.403326   -0.000000    0.000000   -0.000000
    9.375873    0.078361    0.078361    1.239003   -0.000000    0.000000   -0.000000
    9.418685    0.077919    0.077919    1.084629   -0.000000    0.000000   -0.000000
    9.461497    0.077563    0.077563    0.944912   -0.000000    0.000000   -0.000000
    9.504309    0.077291    0.077291    0.825212   -0.000000    0.000000   -0.000000
    9.547121    0.077105    0.077105    0.729313   -0.000000    0.000000   -0.000000
    9.589934    0.077014    0.077014    0.655222   -0.000000    0.000000   -0.000000
    9.632746    0.077028    0.077028    0.597642   -0.000000    0.000000   -0.000000
    9.675558    0.077138    0.077138    0.552185   -0.000000   -0.000000   -0.000000
    9.718370    0.077330    0.077330    0.516185   -0.000000   -0.000000   -0.000000
    9.761182    0.077588    0.077588    0.488122   -0.000000   -0.000000   -0.000000
    9.803995    0.077890    0.077890    0.466956   -0.000000    0.000000   -0.000000
    9.846807    0.078234    0.078234    0.451892   -0.000000    0.000000   -0.000000
    9.889619    0.078633    0.078633    0.442298   -0.000000    0.000000   -0.000000
