#  frequency dependent      REAL DIELECTRIC FUNCTION (independent particle, no local field effects)
#     E(ev)      X         Y         Z        XY        YZ        ZX
#  --------------------------------------------------------------------------------------
    0.000000  158.399888  158.399888  158.399888    0.000000    0.000000    0.000000
    0.042887  151.738475  151.738475  151.738475    0.000000    0.000000    0.000000
    0.085775  132.967220  132.967220  132.967220    0.000000    0.000000    0.000000
    0.128662  105.440532  105.440532  105.440532   -0.000000    0.000000    0.000000
    0.171550   73.861807   73.861807   73.861807   -0.000000   -0.000000    0.000000
    0.214437   43.174190   43.174190   43.174190   -0.000000   -0.000000   -0.000000
    0.257325   17.437299   17.437299   17.437299   -0.000000   -0.000000   -0.000000
    0.300212   -0.973263   -0.973263   -0.973263   -0.000000   -0.000000   -0.000000
    0.343100  -11.610249  -11.610249  -11.610249   -0.000000   -0.000000   -0.000000
    0.385987  -15.620194  -15.620194  -15.620194    0.000000   -0.000000   -0.000000
    0.428875  -15.031993  -15.031993  -15.031993    0.000000   -0.000000   -0.000000
    0.471762  -11.985673  -11.985673  -11.985673    0.000000   -0.000000   -0.000000
    0.514650   -8.178731   -8.178731   -8.178731    0.000000   -0.000000   -0.000000
    0.557537   -4.652082   -4.652082   -4.652082   -0.000000   -0.000000   -0.000000
    0.600424   -1.867055   -1.867055   -1.867055   -0.000000   -0.000000   -0.000000
    0.643312    0.076656    0.076656    0.076656   -0.000000   -0.000000   -0.000000
    0.686199    1.233711    1.233711    1.233711   -0.000000   -0.000000   -0.000000
    0.729087    1.700020    1.700020    1.700020   -0.000000   -0.000000   -0.000000
    0.771974    1.595059    1.595059    1.595059   -0.000000   -0.000000   -0.000000
    0.814862    1.088093    1.088093    1.088093   -0.000000   -0.000000   -0.000000
    0.857749    0.409796    0.409796    0.409796   -0.000000   -0.000000   -0.000000
    0.900637   -0.180649   -0.180649   -0.180649   -0.000000   -0.000000   -0.000000
    0.943524   -0.462743   -0.462743   -0.462743   -0.000000   -0.000000   -0.000000
    0.986412   -0.319142   -0.319142   -0.319142   -0.000000   -0.000000   -0.000000
    1.029299    0.238833    0.238833    0.238833   -0.000000   -0.000000   -0.000000
    1.072186    1.096917    1.096917    1.096917   -0.000000   -0.000000   -0.000000
    1.115074    2.097950    2.097950    2.097950   -0.000000   -0.000000   -0.000000
    1.157961    3.103707    3.103707    3.103707   -0.000000   -0.000000   -0.000000
    1.200849    4.031438    4.031438    4.031438   -0.000000   -0.000000   -0.000000
    1.243736    4.856960    4.856960    4.856960   -0.000000   -0.000000   -0.000000
    1.286624    5.594732    5.594732    5.594732   -0.000000   -0.000000   -0.000000
    1.329511    6.272607    6.272607    6.272607   -0.000000   -0.000000   -0.000000
    1.372399    6.914526    6.914526    6.914526   -0.000000   -0.000000   -0.000000
    1.415286    7.534080    7.534080    7.534080   -0.000000   -0.000000   -0.000000
    1.458174    8.134478    8.134478    8.134478   -0.000000   -0.000000   -0.000000
    1.501061    8.709631    8.709631    8.709631   -0.000000   -0.000000   -0.000000
    1.543949    9.245093    9.245093    9.245093   -0.000000   -0.000000   -0.000000
    1.586836    9.721119    9.721119    9.721119   -0.000000   -0.000000   -0.000000
    1.629723   10.119955   10.119955   10.119955   -0.000000   -0.000000   -0.000000
    1.672611   10.435921   10.435921   10.435921   -0.000000   -0.000000   -0.000000
    1.715498   10.683490   10.683490   10.683490   -0.000000   -0.000000   -0.000000
    1.758386   10.898298   10.898298   10.898298   -0.000000   -0.000000   -0.000000
    1.801273   11.129521   11.129521   11.129521   -0.000000   -0.000000   -0.000000
    1.844161   11.426237   11.426237   11.426237   -0.000000   -0.000000   -0.000000
    1.887048   11.823067   11.823067   11.823067   -0.000000   -0.000000   -0.000000
    1.929936   12.329630   12.329630   12.329630   -0.000000   -0.000000   -0.000000
    1.972823   12.926435   12.926435   12.926435   -0.000000   -0.000000   -0.000000
    2.015711   13.568065   13.568065   13.568065   -0.000000   -0.000000   -0.000000
    2.058598   14.193969   14.193969   14.193969   -0.000000   -0.000000   -0.000000
    2.101486   14.745731   14.745731   14.745731   -0.000000   -0.000000   -0.000000
    2.144373   15.186271   15.186271   15.186271   -0.000000   -0.000000   -0.000000
    2.187260   15.512985   15.512985   15.512985   -0.000000   -0.000000   -0.000000
    2.230148   15.756124   15.756124   15.756124   -0.000000   -0.000000   -0.000000
    2.273035   15.960427   15.960427   15.960427   -0.000000   -0.000000   -0.000000
    2.315923   16.157935   16.157935   16.157935   -0.000000   -0.000000   -0.000000
    2.358810   16.347192   16.347192   16.347192   -0.000000   -0.000000   -0.000000
    2.401698   16.492035   16.492035   16.492035   -0.000000   -0.000000   -0.000000
    2.444585   16.540961   16.540961   16.540961   -0.000000   -0.000000   -0.000000
    2.487473   16.454897   16.454897   16.454897   -0.000000   -0.000000   -0.000000
    2.530360   16.225445   16.225445   16.225445   -0.000000   -0.000000   -0.000000
    2.573248   15.871647   15.871647   15.871647   -0.000000   -0.000000    0.000000
    2.616135   15.417593   15.417593   15.417593   -0.000000   -0.000000    0.000000
    2.659022   14.865642   14.865642   14.865642    0.000000   -0.000000    0.000000
    2.701910   14.183669   14.183669   14.183669    0.000000   -0.000000    0.000000
    2.744797   13.317276   13.317276   13.317276    0.000000   -0.000000    0.000000
    2.787685   12.223006   12.223006   12.223006    0.000000   -0.000000    0.000000
    2.830572   10.905601   10.905601   10.905601    0.000000   -0.000000    0.000000
    2.873460    9.437865    9.437865    9.437865    0.000000   -0.000000    0.000000
    2.916347    7.948396    7.948396    7.948396    0.000000   -0.000000    0.000000
    2.959235    6.578376    6.578376    6.578376    0.000000   -0.000000    0.000000
    3.002122    5.425608    5.425608    5.425608    0.000000   -0.000000   -0.000000
    3.045010    4.503218    4.503218    4.503218    0.000000    0.000000   -0.000000
    3.087897    3.736037    3.736037    3.736037    0.000000    0.000000   -0.000000
    3.130785    2.999448    2.999448    2.999448    0.000000    0.000000   -0.000000
    3.173672    2.182600    2.182600    2.182600    0.000000    0.000000   -0.000000
    3.216559    1.243300    1.243300    1.243300    0.000000    0.000000   -0.000000
    3.259447    0.225866    0.225866    0.225866   -0.000000    0.000000   -0.000000
    3.302334   -0.766030   -0.766030   -0.766030   -0.000000   -0.000000   -0.000000
    3.345222   -1.623494   -1.623494   -1.623494   -0.000000   -0.000000   -0.000000
    3.388109   -2.281592   -2.281592   -2.281592   -0.000000    0.000000   -0.000000
    3.430997   -2.738008   -2.738008   -2.738008   -0.000000    0.000000   -0.000000
    3.473884   -3.037159   -3.037159   -3.037159   -0.000000    0.000000   -0.000000
    3.516772   -3.236073   -3.236073   -3.236073   -0.000000    0.000000   -0.000000
    3.559659   -3.374891   -3.374891   -3.374891    0.000000    0.000000   -0.000000
    3.602547   -3.465408   -3.465408   -3.465408    0.000000    0.000000    0.000000
    3.645434   -3.497161   -3.497161   -3.497161    0.000000    0.000000    0.000000
    3.688322   -3.451770   -3.451770   -3.451770    0.000000    0.000000    0.000000
    3.731209   -3.316835   -3.316835   -3.316835    0.000000    0.000000    0.000000
    3.774096   -3.095162   -3.095162   -3.095162    0.000000    0.000000    0.000000
    3.816984   -2.808717   -2.808717   -2.808717    0.000000    0.000000    0.000000
    3.859871   -2.497163   -2.497163   -2.497163    0.000000    0.000000    0.000000
    3.902759   -2.211063   -2.211063   -2.211063    0.000000    0.000000    0.000000
    3.945646   -2.000677   -2.000677   -2.000677    0.000000    0.000000    0.000000
    3.988534   -1.903452   -1.903452   -1.903452    0.000000    0.000000    0.000000
    4.031421   -1.934585   -1.934585   -1.934585    0.000000    0.000000    0.000000
    4.074309   -2.084098   -2.084098   -2.084098    0.000000    0.000000   -0.000000
    4.117196   -2.321195   -2.321195   -2.321195   -0.000000   -0.000000   -0.000000
    4.160084   -2.603505   -2.603505   -2.603505   -0.000000   -0.000000   -0.000000
    4.202971   -2.887289   -2.887289   -2.887289   -0.000000   -0.000000   -0.000000
    4.245858   -3.135214   -3.135214   -3.135214   -0.000000   -0.000000   -0.000000
    4.288746   -3.320655   -3.320655   -3.320655   -0.000000   -0.000000   -0.000000
    4.331633   -3.429476   -3.429476   -3.429476   -0.000000   -0.000000   -0.000000
    4.374521   -3.460443   -3.460443   -3.460443   -0.000000   -0.000000   -0.000000
    4.417408   -3.424105   -3.424105   -3.424105   -0.000000   -0.000000   -0.000000
    4.460296   -3.338771   -3.338771   -3.338771    0.000000   -0.000000   -0.000000
    4.503183   -3.223415   -3.223415   -3.223415    0.000000   -0.000000   -0.000000
    4.546071   -3.090201   -3.090201   -3.090201   -0.000000    0.000000   -0.000000
    4.588958   -2.941437   -2.941437   -2.941437   -0.000000    0.000000   -0.000000
    4.631846   -2.774008   -2.774008   -2.774008   -0.000000    0.000000   -0.000000
    4.674733   -2.589405   -2.589405   -2.589405   -0.000000    0.000000   -0.000000
    4.717621   -2.402923   -2.402923   -2.402923   -0.000000    0.000000   -0.000000
    4.760508   -2.245008   -2.245008   -2.245008   -0.000000   -0.000000   -0.000000
    4.803395   -2.152478   -2.152478   -2.152478   -0.000000   -0.000000   -0.000000
    4.846283   -2.153531   -2.153531   -2.153531   -0.000000   -0.000000   -0.000000
    4.889170   -2.254305   -2.254305   -2.254305   -0.000000   -0.000000   -0.000000
    4.932058   -2.434115   -2.434115   -2.434115   -0.000000    0.000000   -0.000000
    4.974945   -2.651431   -2.651431   -2.651431   -0.000000   -0.000000   -0.000000
    5.017833   -2.857497   -2.857497   -2.857497   -0.000000   -0.000000   -0.000000
    5.060720   -3.010924   -3.010924   -3.010924   -0.000000   -0.000000   -0.000000
    5.103608   -3.087291   -3.087291   -3.087291   -0.000000   -0.000000    0.000000
    5.146495   -3.081094   -3.081094   -3.081094    0.000000    0.000000    0.000000
    5.189383   -3.001159   -3.001159   -3.001159    0.000000    0.000000   -0.000000
    5.232270   -2.863441   -2.863441   -2.863441    0.000000    0.000000   -0.000000
    5.275157   -2.684565   -2.684565   -2.684565    0.000000    0.000000   -0.000000
    5.318045   -2.478267   -2.478267   -2.478267    0.000000    0.000000   -0.000000
    5.360932   -2.254837   -2.254837   -2.254837    0.000000    0.000000   -0.000000
    5.403820   -2.022857   -2.022857   -2.022857    0.000000    0.000000   -0.000000
    5.446707   -1.792016   -1.792016   -1.792016    0.000000    0.000000   -0.000000
    5.489595   -1.575515   -1.575515   -1.575515    0.000000    0.000000   -0.000000
    5.532482   -1.390714   -1.390714   -1.390714    0.000000    0.000000   -0.000000
    5.575370   -1.257003   -1.257003   -1.257003    0.000000    0.000000   -0.000000
    5.618257   -1.191093   -1.191093   -1.191093    0.000000    0.000000   -0.000000
    5.661145   -1.201229   -1.201229   -1.201229    0.000000    0.000000   -0.000000
    5.704032   -1.282523   -1.282523   -1.282523    0.000000    0.000000   -0.000000
    5.746920   -1.415814   -1.415814   -1.415814    0.000000   -0.000000   -0.000000
    5.789807   -1.571370   -1.571370   -1.571370    0.000000   -0.000000   -0.000000
    5.832694   -1.717049   -1.717049   -1.717049    0.000000   -0.000000   -0.000000
    5.875582   -1.828232   -1.828232   -1.828232    0.000000    0.000000   -0.000000
    5.918469   -1.895262   -1.895262   -1.895262    0.000000   -0.000000   -0.000000
    5.961357   -1.924783   -1.924783   -1.924783    0.000000   -0.000000   -0.000000
    6.004244   -1.933914   -1.933914   -1.933914    0.000000   -0.000000   -0.000000
    6.047132   -1.940339   -1.940339   -1.940339    0.000000    0.000000   -0.000000
    6.090019   -1.953389   -1.953389   -1.953389    0.000000    0.000000   -0.000000
    6.132907   -1.970789   -1.970789   -1.970789    0.000000    0.000000   -0.000000
    6.175794   -1.982033   -1.982033   -1.982033    0.000000   -0.000000   -0.000000
    6.218682   -1.975500   -1.975500   -1.975500    0.000000   -0.000000   -0.000000
    6.261569   -1.944662   -1.944662   -1.944662    0.000000   -0.000000   -0.000000
    6.304457   -1.890105   -1.890105   -1.890105    0.000000   -0.000000   -0.000000
    6.347344   -1.817258   -1.817258   -1.817258    0.000000   -0.000000   -0.000000
    6.390231   -1.732413   -1.732413   -1.732413    0.000000   -0.000000   -0.000000
    6.433119   -1.640025   -1.640025   -1.640025    0.000000   -0.000000   -0.000000
    6.476006   -1.542611   -1.542611   -1.542611   -0.000000   -0.000000   -0.000000
    6.518894   -1.442534   -1.442534   -1.442534   -0.000000   -0.000000   -0.000000
    6.561781   -1.343879   -1.343879   -1.343879   -0.000000   -0.000000   -0.000000
    6.604669   -1.252811   -1.252811   -1.252811   -0.000000   -0.000000   -0.000000
    6.647556   -1.176249   -1.176249   -1.176249   -0.000000   -0.000000   -0.000000
    6.690444   -1.119669   -1.119669   -1.119669   -0.000000   -0.000000   -0.000000
    6.733331   -1.085408   -1.085408   -1.085408   -0.000000   -0.000000   -0.000000
    6.776219   -1.072379   -1.072379   -1.072379   -0.000000   -0.000000   -0.000000
    6.819106   -1.077201   -1.077201   -1.077201   -0.000000   -0.000000   -0.000000
    6.861993   -1.095780   -1.095780   -1.095780    0.000000   -0.000000   -0.000000
    6.904881   -1.124298   -1.124298   -1.124298    0.000000   -0.000000   -0.000000
    6.947768   -1.159027   -1.159027   -1.159027    0.000000   -0.000000   -0.000000
    6.990656   -1.195398   -1.195398   -1.195398    0.000000   -0.000000   -0.000000
    7.033543   -1.227190   -1.227190   -1.227190    0.000000   -0.000000   -0.000000
    7.076431   -1.246705   -1.246705   -1.246705    0.000000    0.000000   -0.000000
    7.119318   -1.246155   -1.246155   -1.246155    0.000000    0.000000   -0.000000
    7.162206   -1.219861   -1.219861   -1.219861    0.000000    0.000000   -0.000000
    7.205093   -1.166288   -1.166288   -1.166288   -0.000000    0.000000   -0.000000
    7.247981   -1.088784   -1.088784   -1.088784   -0.000000    0.000000   -0.000000
    7.290868   -0.994370   -0.994370   -0.994370   -0.000000    0.000000   -0.000000
    7.333756   -0.890973   -0.890973   -0.890973   -0.000000    0.000000   -0.000000
    7.376643   -0.784385   -0.784385   -0.784385   -0.000000    0.000000   -0.000000
    7.419530   -0.676748   -0.676748   -0.676748   -0.000000   -0.000000   -0.000000
    7.462418   -0.567436   -0.567436   -0.567436   -0.000000   -0.000000   -0.000000
    7.505305   -0.455815   -0.455815   -0.455815   -0.000000   -0.000000   -0.000000
    7.548193   -0.344098   -0.344098   -0.344098   -0.000000    0.000000   -0.000000
    7.591080   -0.238437   -0.238437   -0.238437   -0.000000    0.000000   -0.000000
    7.633968   -0.147447   -0.147447   -0.147447   -0.000000    0.000000   -0.000000
    7.676855   -0.078868   -0.078868   -0.078868   -0.000000    0.000000   -0.000000
    7.719743   -0.036209   -0.036209   -0.036209    0.000000    0.000000   -0.000000
    7.762630   -0.017038   -0.017038   -0.017038    0.000000    0.000000   -0.000000
    7.805518   -0.013746   -0.013746   -0.013746    0.000000    0.000000   -0.000000
    7.848405   -0.016294   -0.016294   -0.016294    0.000000    0.000000   -0.000000
    7.891293   -0.015676   -0.015676   -0.015676    0.000000    0.000000   -0.000000
    7.934180   -0.006617   -0.006617   -0.006617    0.000000    0.000000   -0.000000
    7.977067    0.011492    0.011492    0.011492    0.000000    0.000000   -0.000000
    8.019955    0.035599    0.035599    0.035599    0.000000    0.000000   -0.000000
    8.062842    0.061300    0.061300    0.061300    0.000000    0.000000   -0.000000
    8.105730    0.085305    0.085305    0.085305    0.000000    0.000000   -0.000000
    8.148617    0.107076    0.107076    0.107076    0.000000    0.000000   -0.000000
    8.191505    0.129135    0.129135    0.129135    0.000000    0.000000   -0.000000
    8.234392    0.156060    0.156060    0.156060    0.000000   -0.000000   -0.000000
    8.277280    0.192546    0.192546    0.192546    0.000000   -0.000000   -0.000000
    8.320167    0.240965    0.240965    0.240965    0.000000   -0.000000   -0.000000
    8.363055    0.299165    0.299165    0.299165    0.000000   -0.000000   -0.000000
    8.405942    0.359445    0.359445    0.359445    0.000000   -0.000000   -0.000000
    8.448829    0.409715    0.409715    0.409715    0.000000   -0.000000   -0.000000
    8.491717    0.437027    0.437027    0.437027    0.000000   -0.000000   -0.000000
    8.534604    0.432517    0.432517    0.432517    0.000000   -0.000000   -0.000000
    8.577492    0.395557    0.395557    0.395557    0.000000    0.000000   -0.000000
    8.620379    0.335000    0.335000    0.335000    0.000000    0.000000   -0.000000
    8.663267    0.266524    0.266524    0.266524    0.000000    0.000000   -0.000000
    8.706154    0.207097    0.207097    0.207097    0.000000   -0.000000   -0.000000
    8.749042    0.168965    0.168965    0.168965   -0.000000   -0.000000   -0.000000
    8.791929    0.155759    0.155759    0.155759   -0.000000   -0.000000   -0.000000
    8.834817    0.162134    0.162134    0.162134   -0.000000    0.000000   -0.000000
    8.877704    0.176659    0.176659    0.176659   -0.000000    0.000000   -0.000000
    8.920592    0.186327    0.186327    0.186327    0.000000    0.000000   -0.000000
    8.963479    0.180675    0.180675    0.180675    0.000000    0.000000   -0.000000
    9.006366    0.154126    0.154126    0.154126    0.000000    0.000000   -0.000000
    9.049254    0.106267    0.106267    0.106267    0.000000    0.000000   -0.000000
    9.092141    0.040622    0.040622    0.040622    0.000000    0.000000   -0.000000
    9.135029   -0.037183   -0.037183   -0.037183    0.000000    0.000000   -0.000000
    9.177916   -0.121229   -0.121229   -0.121229    0.000000    0.000000   -0.000000
    9.220804   -0.206778   -0.206778   -0.206778   -0.000000    0.000000   -0.000000
    9.263691   -0.291110   -0.291110   -0.291110   -0.000000   -0.000000   -0.000000
    9.306579   -0.373422   -0.373422   -0.373422   -0.000000   -0.000000    0.000000
    9.349466   -0.453671   -0.453671   -0.453671   -0.000000   -0.000000    0.000000
    9.392354   -0.530837   -0.530837   -0.530837   -0.000000   -0.000000   -0.000000
    9.435241   -0.601580   -0.601580   -0.601580   -0.000000   -0.000000   -0.000000
    9.478129   -0.660293   -0.660293   -0.660293   -0.000000   -0.000000   -0.000000
    9.521016   -0.700691   -0.700691   -0.700691   -0.000000   -0.000000   -0.000000
    9.563903   -0.718142   -0.718142   -0.718142   -0.000000   -0.000000   -0.000000
    9.606791   -0.711454   -0.711454   -0.711454   -0.000000   -0.000000   -0.000000
    9.649678   -0.683218   -0.683218   -0.683218   -0.000000   -0.000000   -0.000000
    9.692566   -0.638780   -0.638780   -0.638780   -0.000000   -0.000000   -0.000000
    9.735453   -0.584616   -0.584616   -0.584616   -0.000000   -0.000000   -0.000000
    9.778341   -0.526939   -0.526939   -0.526939   -0.000000   -0.000000   -0.000000
    9.821228   -0.470889   -0.470889   -0.470889   -0.000000   -0.000000   -0.000000
    9.864116   -0.420233   -0.420233   -0.420233   -0.000000   -0.000000   -0.000000
    9.907003   -0.377293   -0.377293   -0.377293   -0.000000   -0.000000   -0.000000
