#  frequency dependent IMAGINARY DIELECTRIC FUNCTION (independent particle, no local field effects)
#     E(ev)      X         Y         Z        XY        YZ        ZX
#  --------------------------------------------------------------------------------------
    0.000000    0.000000    0.000000    0.000000    0.000000    0.000000    0.000000
    0.042887   37.861575   37.861575   37.861575    0.000000    0.000000    0.000000
    0.085775   70.461203   70.461203   70.461203    0.000000    0.000000    0.000000
    0.128662   93.660158   93.660158   93.660158    0.000000    0.000000    0.000000
    0.171550  105.293024  105.293024  105.293024    0.000000    0.000000    0.000000
    0.214437  105.518087  105.518087  105.518087   -0.000000    0.000000    0.000000
    0.257325   96.558276   96.558276   96.558276   -0.000000    0.000000    0.000000
    0.300212   81.915120   81.915120   81.915120   -0.000000    0.000000    0.000000
    0.343100   65.330517   65.330517   65.330517   -0.000000    0.000000    0.000000
    0.385987   49.856983   49.856983   49.856983   -0.000000    0.000000    0.000000
    0.428875   37.327410   37.327410   37.327410   -0.000000    0.000000    0.000000
    0.471762   28.317988   28.317988   28.317988    0.000000    0.000000    0.000000
    0.514650   22.487001   22.487001   22.487001    0.000000    0.000000    0.000000
    0.557537   19.055193   19.055193   19.055193    0.000000    0.000000    0.000000
    0.600424   17.207134   17.207134   17.207134    0.000000    0.000000    0.000000
    0.643312   16.299757   16.299757   16.299757    0.000000    0.000000    0.000000
    0.686199   15.889590   15.889590   15.889590   -0.000000    0.000000    0.000000
    0.729087   15.664782   15.664782   15.664782   -0.000000    0.000000    0.000000
    0.771974   15.375978   15.375978   15.375978   -0.000000    0.000000    0.000000
    0.814862   14.818541   14.818541   14.818541   -0.000000    0.000000    0.000000
    0.857749   13.863803   13.863803   13.863803   -0.000000    0.000000    0.000000
    0.900637   12.500462   12.500462   12.500462   -0.000000    0.000000    0.000000
    0.943524   10.844044   10.844044   10.844044   -0.000000    0.000000    0.000000
    0.986412    9.096525    9.096525    9.096525    0.000000    0.000000    0.000000
    1.029299    7.472158    7.472158    7.472158    0.000000    0.000000    0.000000
    1.072186    6.125898    6.125898    6.125898    0.000000    0.000000    0.000000
    1.115074    5.116688    5.116688    5.116688    0.000000    0.000000    0.000000
    1.157961    4.415662    4.415662    4.415662    0.000000    0.000000    0.000000
    1.200849    3.944863    3.944863    3.944863    0.000000    0.000000    0.000000
    1.243736    3.620888    3.620888    3.620888    0.000000    0.000000    0.000000
    1.286624    3.383178    3.383178    3.383178    0.000000    0.000000    0.000000
    1.329511    3.201023    3.201023    3.201023    0.000000    0.000000    0.000000
    1.372399    3.066315    3.066315    3.066315    0.000000    0.000000    0.000000
    1.415286    2.982701    2.982701    2.982701    0.000000    0.000000    0.000000
    1.458174    2.957863    2.957863    2.957863    0.000000    0.000000    0.000000
    1.501061    2.998967    2.998967    2.998967    0.000000    0.000000    0.000000
    1.543949    3.108301    3.108301    3.108301   -0.000000    0.000000    0.000000
    1.586836    3.277913    3.277913    3.277913   -0.000000    0.000000    0.000000
    1.629723    3.485732    3.485732    3.485732   -0.000000    0.000000    0.000000
    1.672611    3.697184    3.697184    3.697184   -0.000000    0.000000    0.000000
    1.715498    3.873955    3.873955    3.873955   -0.000000   -0.000000    0.000000
    1.758386    3.987250    3.987250    3.987250   -0.000000   -0.000000    0.000000
    1.801273    4.029691    4.029691    4.029691   -0.000000   -0.000000    0.000000
    1.844161    4.020725    4.020725    4.020725   -0.000000   -0.000000    0.000000
    1.887048    4.003482    4.003482    4.003482   -0.000000   -0.000000    0.000000
    1.929936    4.034651    4.034651    4.034651   -0.000000   -0.000000    0.000000
    1.972823    4.170382    4.170382    4.170382   -0.000000   -0.000000    0.000000
    2.015711    4.451490    4.451490    4.451490   -0.000000   -0.000000    0.000000
    2.058598    4.891222    4.891222    4.891222   -0.000000   -0.000000    0.000000
    2.101486    5.469950    5.469950    5.469950   -0.000000   -0.000000    0.000000
    2.144373    6.141095    6.141095    6.141095   -0.000000   -0.000000    0.000000
    2.187260    6.849204    6.849204    6.849204   -0.000000    0.000000    0.000000
    2.230148    7.554227    7.554227    7.554227   -0.000000    0.000000    0.000000
    2.273035    8.249938    8.249938    8.249938   -0.000000    0.000000    0.000000
    2.315923    8.964787    8.964787    8.964787   -0.000000    0.000000    0.000000
    2.358810    9.743138    9.743138    9.743138   -0.000000    0.000000    0.000000
    2.401698   10.616977   10.616977   10.616977   -0.000000    0.000000    0.000000
    2.444585   11.585423   11.585423   11.585423   -0.000000    0.000000   -0.000000
    2.487473   12.614910   12.614910   12.614910   -0.000000    0.000000   -0.000000
    2.530360   13.659435   13.659435   13.659435   -0.000000   -0.000000   -0.000000
    2.573248   14.687315   14.687315   14.687315   -0.000000   -0.000000   -0.000000
    2.616135   15.696133   15.696133   15.696133   -0.000000   -0.000000   -0.000000
    2.659022   16.705106   16.705106   16.705106   -0.000000   -0.000000   -0.000000
    2.701910   17.728289   17.728289   17.728289   -0.000000   -0.000000   -0.000000
    2.744797   18.744509   18.744509   18.744509   -0.000000   -0.000000   -0.000000
    2.787685   19.683497   19.683497   19.683497   -0.000000   -0.000000    0.000000
    2.830572   20.440392   20.440392   20.440392   -0.000000   -0.000000    0.000000
    2.873460   20.915238   20.915238   20.915238   -0.000000   -0.000000    0.000000
    2.916347   21.059939   21.059939   21.059939    0.000000   -0.000000    0.000000
    2.959235   20.908256   20.908256   20.908256   -0.000000   -0.000000    0.000000
    3.002122   20.570244   20.570244   20.570244   -0.000000   -0.000000    0.000000
    3.045010   20.189555   20.189555   20.189555   -0.000000   -0.000000    0.000000
    3.087897   19.881573   19.881573   19.881573    0.000000   -0.000000    0.000000
    3.130785   19.683148   19.683148   19.683148    0.000000   -0.000000    0.000000
    3.173672   19.540452   19.540452   19.540452    0.000000   -0.000000   -0.000000
    3.216559   19.342184   19.342184   19.342184    0.000000   -0.000000   -0.000000
    3.259447   18.979924   18.979924   18.979924    0.000000   -0.000000   -0.000000
    3.302334   18.402652   18.402652   18.402652    0.000000   -0.000000    0.000000
    3.345222   17.636668   17.636668   17.636668    0.000000   -0.000000    0.000000
    3.388109   16.764148   16.764148   16.764148   -0.000000   -0.000000    0.000000
    3.430997   15.878285   15.878285   15.878285   -0.000000   -0.000000    0.000000
    3.473884   15.043069   15.043069   15.043069   -0.000000   -0.000000    0.000000
    3.516772   14.278082   14.278082   14.278082   -0.000000   -0.000000   -0.000000
    3.559659   13.569326   13.569326   13.569326   -0.000000   -0.000000   -0.000000
    3.602547   12.892529   12.892529   12.892529   -0.000000   -0.000000   -0.000000
    3.645434   12.233392   12.233392   12.233392   -0.000000   -0.000000   -0.000000
    3.688322   11.596700   11.596700   11.596700   -0.000000   -0.000000   -0.000000
    3.731209   11.005099   11.005099   11.005099   -0.000000   -0.000000   -0.000000
    3.774096   10.491628   10.491628   10.491628   -0.000000   -0.000000    0.000000
    3.816984   10.089659   10.089659   10.089659   -0.000000   -0.000000    0.000000
    3.859871    9.822163    9.822163    9.822163   -0.000000   -0.000000    0.000000
    3.902759    9.692752    9.692752    9.692752   -0.000000   -0.000000    0.000000
    3.945646    9.681196    9.681196    9.681196    0.000000    0.000000    0.000000
    3.988534    9.745795    9.745795    9.745795    0.000000    0.000000    0.000000
    4.031421    9.832420    9.832420    9.832420    0.000000    0.000000    0.000000
    4.074309    9.887207    9.887207    9.887207    0.000000    0.000000    0.000000
    4.117196    9.868346    9.868346    9.868346    0.000000    0.000000    0.000000
    4.160084    9.753009    9.753009    9.753009    0.000000    0.000000    0.000000
    4.202971    9.538218    9.538218    9.538218    0.000000    0.000000    0.000000
    4.245858    9.237234    9.237234    9.237234    0.000000    0.000000    0.000000
    4.288746    8.874140    8.874140    8.874140    0.000000    0.000000    0.000000
    4.331633    8.478588    8.478588    8.478588   -0.000000   -0.000000    0.000000
    4.374521    8.080814    8.080814    8.080814   -0.000000   -0.000000    0.000000
    4.417408    7.706300    7.706300    7.706300   -0.000000   -0.000000    0.000000
    4.460296    7.370696    7.370696    7.370696   -0.000000   -0.000000    0.000000
    4.503183    7.077784    7.077784    7.077784    0.000000   -0.000000   -0.000000
    4.546071    6.822772    6.822772    6.822772    0.000000   -0.000000   -0.000000
    4.588958    6.600638    6.600638    6.600638    0.000000   -0.000000   -0.000000
    4.631846    6.414433    6.414433    6.414433    0.000000    0.000000   -0.000000
    4.674733    6.277515    6.277515    6.277515    0.000000    0.000000   -0.000000
    4.717621    6.206724    6.206724    6.206724    0.000000    0.000000   -0.000000
    4.760508    6.209782    6.209782    6.209782    0.000000    0.000000   -0.000000
    4.803395    6.274318    6.274318    6.274318    0.000000    0.000000   -0.000000
    4.846283    6.365690    6.365690    6.365690   -0.000000   -0.000000    0.000000
    4.889170    6.435698    6.435698    6.435698   -0.000000   -0.000000    0.000000
    4.932058    6.438196    6.438196    6.438196   -0.000000   -0.000000    0.000000
    4.974945    6.344214    6.344214    6.344214   -0.000000   -0.000000   -0.000000
    5.017833    6.149861    6.149861    6.149861   -0.000000   -0.000000   -0.000000
    5.060720    5.874481    5.874481    5.874481   -0.000000   -0.000000   -0.000000
    5.103608    5.551325    5.551325    5.551325   -0.000000   -0.000000   -0.000000
    5.146495    5.215940    5.215940    5.215940   -0.000000   -0.000000    0.000000
    5.189383    4.897270    4.897270    4.897270   -0.000000   -0.000000    0.000000
    5.232270    4.613904    4.613904    4.613904   -0.000000   -0.000000    0.000000
    5.275157    4.375030    4.375030    4.375030   -0.000000   -0.000000    0.000000
    5.318045    4.183969    4.183969    4.183969   -0.000000   -0.000000    0.000000
    5.360932    4.042031    4.042031    4.042031   -0.000000   -0.000000    0.000000
    5.403820    3.951162    3.951162    3.951162   -0.000000    0.000000    0.000000
    5.446707    3.914512    3.914512    3.914512   -0.000000    0.000000    0.000000
    5.489595    3.934684    3.934684    3.934684   -0.000000    0.000000    0.000000
    5.532482    4.010304    4.010304    4.010304    0.000000    0.000000    0.000000
    5.575370    4.132334    4.132334    4.132334    0.000000    0.000000    0.000000
    5.618257    4.282131    4.282131    4.282131    0.000000    0.000000    0.000000
    5.661145    4.432785    4.432785    4.432785    0.000000    0.000000    0.000000
    5.704032    4.554137    4.554137    4.554137    0.000000    0.000000    0.000000
    5.746920    4.620417    4.620417    4.620417    0.000000    0.000000    0.000000
    5.789807    4.617967    4.617967    4.617967    0.000000    0.000000    0.000000
    5.832694    4.549779    4.549779    4.549779    0.000000    0.000000    0.000000
    5.875582    4.434298    4.434298    4.434298    0.000000    0.000000    0.000000
    5.918469    4.298087    4.298087    4.298087    0.000000    0.000000    0.000000
    5.961357    4.165245    4.165245    4.165245    0.000000    0.000000    0.000000
    6.004244    4.048463    4.048463    4.048463    0.000000    0.000000    0.000000
    6.047132    3.946146    3.946146    3.946146    0.000000    0.000000   -0.000000
    6.090019    3.846758    3.846758    3.846758    0.000000    0.000000   -0.000000
    6.132907    3.737470    3.737470    3.737470    0.000000    0.000000   -0.000000
    6.175794    3.611940    3.611940    3.611940    0.000000    0.000000   -0.000000
    6.218682    3.473156    3.473156    3.473156    0.000000    0.000000   -0.000000
    6.261569    3.330670    3.330670    3.330670    0.000000    0.000000   -0.000000
    6.304457    3.195060    3.195060    3.195060    0.000000    0.000000   -0.000000
    6.347344    3.073475    3.073475    3.073475    0.000000    0.000000   -0.000000
    6.390231    2.968569    2.968569    2.968569    0.000000    0.000000   -0.000000
    6.433119    2.880394    2.880394    2.880394    0.000000    0.000000   -0.000000
    6.476006    2.809047    2.809047    2.809047    0.000000    0.000000   -0.000000
    6.518894    2.755926    2.755926    2.755926    0.000000   -0.000000   -0.000000
    6.561781    2.722949    2.722949    2.722949    0.000000   -0.000000   -0.000000
    6.604669    2.710567    2.710567    2.710567    0.000000   -0.000000   -0.000000
    6.647556    2.716130    2.716130    2.716130   -0.000000   -0.000000   -0.000000
    6.690444    2.733726    2.733726    2.733726   -0.000000   -0.000000    0.000000
    6.733331    2.755585    2.755585    2.755585   -0.000000   -0.000000    0.000000
    6.776219    2.774188    2.774188    2.774188   -0.000000   -0.000000   -0.000000
    6.819106    2.783797    2.783797    2.783797   -0.000000   -0.000000   -0.000000
    6.861993    2.780728    2.780728    2.780728   -0.000000   -0.000000   -0.000000
    6.904881    2.762501    2.762501    2.762501   -0.000000   -0.000000   -0.000000
    6.947768    2.726837    2.726837    2.726837   -0.000000   -0.000000   -0.000000
    6.990656    2.671432    2.671432    2.671432    0.000000   -0.000000   -0.000000
    7.033543    2.594805    2.594805    2.594805    0.000000   -0.000000   -0.000000
    7.076431    2.497792    2.497792    2.497792    0.000000   -0.000000   -0.000000
    7.119318    2.384762    2.384762    2.384762    0.000000   -0.000000   -0.000000
    7.162206    2.263700    2.263700    2.263700    0.000000   -0.000000   -0.000000
    7.205093    2.144702    2.144702    2.144702    0.000000   -0.000000    0.000000
    7.247981    2.037299    2.037299    2.037299    0.000000   -0.000000    0.000000
    7.290868    1.947726    1.947726    1.947726    0.000000   -0.000000    0.000000
    7.333756    1.877561    1.877561    1.877561    0.000000   -0.000000    0.000000
    7.376643    1.824612    1.824612    1.824612   -0.000000   -0.000000    0.000000
    7.419530    1.785644    1.785644    1.785644   -0.000000   -0.000000    0.000000
    7.462418    1.759297    1.759297    1.759297   -0.000000   -0.000000    0.000000
    7.505305    1.747430    1.747430    1.747430   -0.000000   -0.000000    0.000000
    7.548193    1.753905    1.753905    1.753905   -0.000000   -0.000000    0.000000
    7.591080    1.781563    1.781563    1.781563   -0.000000   -0.000000    0.000000
    7.633968    1.829200    1.829200    1.829200   -0.000000   -0.000000    0.000000
    7.676855    1.890364    1.890364    1.890364   -0.000000   -0.000000    0.000000
    7.719743    1.954723    1.954723    1.954723   -0.000000   -0.000000    0.000000
    7.762630    2.011356    2.011356    2.011356   -0.000000    0.000000    0.000000
    7.805518    2.052349    2.052349    2.052349   -0.000000    0.000000    0.000000
    7.848405    2.075101    2.075101    2.075101   -0.000000    0.000000    0.000000
    7.891293    2.082467    2.082467    2.082467   -0.000000   -0.000000    0.000000
    7.934180    2.080876    2.080876    2.080876    0.000000    0.000000    0.000000
    7.977067    2.077354    2.077354    2.077354    0.000000    0.000000    0.000000
    8.019955    2.076819    2.076819    2.076819    0.000000    0.000000    0.000000
    8.062842    2.080670    2.080670    2.080670    0.000000    0.000000    0.000000
    8.105730    2.087092    2.087092    2.087092    0.000000    0.000000    0.000000
    8.148617    2.092714    2.092714    2.092714    0.000000    0.000000    0.000000
    8.191505    2.094771    2.094771    2.094771    0.000000    0.000000    0.000000
    8.234392    2.093035    2.093035    2.093035    0.000000    0.000000    0.000000
    8.277280    2.090888    2.090888    2.090888    0.000000    0.000000    0.000000
    8.320167    2.095153    2.095153    2.095153    0.000000    0.000000    0.000000
    8.363055    2.114412    2.114412    2.114412    0.000000    0.000000    0.000000
    8.405942    2.155919    2.155919    2.155919   -0.000000   -0.000000    0.000000
    8.448829    2.221986    2.221986    2.221986   -0.000000   -0.000000    0.000000
    8.491717    2.307435    2.307435    2.307435   -0.000000   -0.000000    0.000000
    8.534604    2.399761    2.399761    2.399761    0.000000   -0.000000   -0.000000
    8.577492    2.482579    2.482579    2.482579    0.000000   -0.000000    0.000000
    8.620379    2.541307    2.541307    2.541307    0.000000   -0.000000    0.000000
    8.663267    2.568608    2.568608    2.568608    0.000000   -0.000000    0.000000
    8.706154    2.567124    2.567124    2.567124    0.000000   -0.000000    0.000000
    8.749042    2.548216    2.548216    2.548216    0.000000   -0.000000    0.000000
    8.791929    2.527462    2.527462    2.527462    0.000000   -0.000000    0.000000
    8.834817    2.518993    2.518993    2.518993    0.000000   -0.000000    0.000000
    8.877704    2.531074    2.531074    2.531074    0.000000   -0.000000    0.000000
    8.920592    2.564437    2.564437    2.564437   -0.000000   -0.000000   -0.000000
    8.963479    2.613420    2.613420    2.613420   -0.000000   -0.000000   -0.000000
    9.006366    2.668855    2.668855    2.668855    0.000000   -0.000000   -0.000000
    9.049254    2.721192    2.721192    2.721192    0.000000    0.000000   -0.000000
    9.092141    2.762814    2.762814    2.762814    0.000000    0.000000   -0.000000
    9.135029    2.789154    2.789154    2.789154    0.000000    0.000000   -0.000000
    9.177916    2.798778    2.798778    2.798778    0.000000    0.000000   -0.000000
    9.220804    2.792670    2.792670    2.792670    0.000000    0.000000   -0.000000
    9.263691    2.772915    2.772915    2.772915    0.000000    0.000000   -0.000000
    9.306579    2.741124    2.741124    2.741124    0.000000    0.000000   -0.000000
    9.349466    2.697268    2.697268    2.697268    0.000000    0.000000   -0.000000
    9.392354    2.639664    2.639664    2.639664   -0.000000    0.000000    0.000000
    9.435241    2.566312    2.566312    2.566312   -0.000000    0.000000    0.000000
    9.478129    2.476969    2.476969    2.476969   -0.000000    0.000000    0.000000
    9.521016    2.374696    2.374696    2.374696   -0.000000    0.000000    0.000000
    9.563903    2.265897    2.265897    2.265897   -0.000000    0.000000    0.000000
    9.606791    2.158789    2.158789    2.158789   -0.000000    0.000000    0.000000
    9.649678    2.061166    2.061166    2.061166   -0.000000    0.000000    0.000000
    9.692566    1.978620    1.978620    1.978620   -0.000000    0.000000    0.000000
    9.735453    1.913854    1.913854    1.913854   -0.000000    0.000000    0.000000
    9.778341    1.866965    1.866965    1.866965   -0.000000   -0.000000    0.000000
    9.821228    1.836167    1.836167    1.836167   -0.000000   -0.000000    0.000000
    9.864116    1.818523    1.818523    1.818523   -0.000000   -0.000000    0.000000
    9.907003    1.810557    1.810557    1.810557   -0.000000   -0.000000    0.000000
