#K-Path(1/A) Energy-Level(eV)
# NKPTS & NBANDS: 300  12
# Band-Index    1
   0.00000    -19.618571
   0.01720    -19.617752
   0.03440    -19.615317
   0.05160    -19.611262
   0.06880    -19.605577
   0.08600    -19.598272
   0.10320    -19.589339
   0.12040    -19.578785
   0.13760    -19.566608
   0.15480    -19.552812
   0.17200    -19.537394
   0.18920    -19.520360
   0.20640    -19.501711
   0.22360    -19.481435
   0.24080    -19.459540
   0.25800    -19.436029
   0.27520    -19.410907
   0.29240    -19.384173
   0.30960    -19.355824
   0.32680    -19.325874
   0.34400    -19.294312
   0.36120    -19.261146
   0.37840    -19.226378
   0.39560    -19.189999
   0.41280    -19.152014
   0.43000    -19.112431
   0.44720    -19.071251
   0.46440    -19.028478
   0.48160    -18.984113
   0.49880    -18.938158
   0.51600    -18.890619
   0.53320    -18.841513
   0.55040    -18.790818
   0.56760    -18.738542
   0.58480    -18.684706
   0.60200    -18.629293
   0.61920    -18.572305
   0.63640    -18.513765
   0.65360    -18.453660
   0.67080    -18.392007
   0.68800    -18.328803
   0.70520    -18.264067
   0.72240    -18.197783
   0.73960    -18.129966
   0.75680    -18.060622
   0.77400    -17.989757
   0.79120    -17.917374
   0.80840    -17.843489
   0.82560    -17.768097
   0.84280    -17.691222
   0.86000    -17.612850
   0.87720    -17.533010
   0.89440    -17.451691
   0.91160    -17.368918
   0.92880    -17.284689
   0.94600    -17.199016
   0.96320    -17.111917
   0.98040    -17.023390
   0.99760    -16.933463
   1.01480    -16.842142
   1.03200    -16.749516
   1.04920    -16.655501
   1.06640    -16.560081
   1.08360    -16.463322
   1.10080    -16.365264
   1.11800    -16.265909
   1.13520    -16.165274
   1.15240    -16.063400
   1.16960    -15.960306
   1.18680    -15.855979
   1.20400    -15.750440
   1.22120    -15.643780
   1.23840    -15.535990
   1.25560    -15.427112
   1.27280    -15.317170
   1.29000    -15.206253
   1.30720    -15.094364
   1.32440    -14.981644
   1.34160    -14.868044
   1.35880    -14.753640
   1.37601    -14.638524
   1.39321    -14.522796
   1.41041    -14.406582
   1.42761    -14.289921
   1.44481    -14.173002
   1.46201    -14.055939
   1.47921    -13.938940
   1.49641    -13.822109
   1.51361    -13.705807
   1.53081    -13.590214
   1.54801    -13.475696
   1.56521    -13.362618
   1.58241    -13.251447
   1.59961    -13.142846
   1.61681    -13.037378
   1.63401    -12.936017
   1.65121    -12.839820
   1.66841    -12.750592
   1.68561    -12.673559
   1.70281    -12.648965
   1.70281    -12.648965
   1.72556    -12.663874
   1.74831    -12.755436
   1.77107    -12.851944
   1.79382    -12.950718
   1.81657    -13.051126
   1.83933    -13.152716
   1.86208    -13.255108
   1.88483    -13.358005
   1.90758    -13.461088
   1.93034    -13.564056
   1.95309    -13.666653
   1.97584    -13.768614
   1.99860    -13.869825
   2.02135    -13.970024
   2.04410    -14.069092
   2.06686    -14.166855
   2.08961    -14.263155
   2.11236    -14.357921
   2.13512    -14.451021
   2.15787    -14.542359
   2.18062    -14.631839
   2.20338    -14.719409
   2.22613    -14.804986
   2.24888    -14.888511
   2.27164    -14.969911
   2.29439    -15.049189
   2.31714    -15.126263
   2.33989    -15.201095
   2.36265    -15.273617
   2.38540    -15.343799
   2.40815    -15.411667
   2.43091    -15.477132
   2.45366    -15.540195
   2.47641    -15.600818
   2.49917    -15.658984
   2.52192    -15.714654
   2.54467    -15.767812
   2.56743    -15.818441
   2.59018    -15.866537
   2.61293    -15.912043
   2.63569    -15.954998
   2.65844    -15.995345
   2.68119    -16.033113
   2.70395    -16.068242
   2.72670    -16.100740
   2.74945    -16.130629
   2.77220    -16.157850
   2.79496    -16.182401
   2.81771    -16.204307
   2.84046    -16.223554
   2.86322    -16.240122
   2.88597    -16.254008
   2.90872    -16.265215
   2.93148    -16.273705
   2.95423    -16.279496
   2.97698    -16.282570
   2.99974    -16.282986
   3.02249    -16.280737
   3.04524    -16.275757
   3.06800    -16.268074
   3.09075    -16.257684
   3.11350    -16.244598
   3.13626    -16.228818
   3.15901    -16.210328
   3.18176    -16.189166
   3.20452    -16.165324
   3.22727    -16.138809
   3.25002    -16.109588
   3.27277    -16.077738
   3.29553    -16.043233
   3.31828    -16.006064
   3.34103    -15.966290
   3.36379    -15.923899
   3.38654    -15.878972
   3.40929    -15.831405
   3.43205    -15.781309
   3.45480    -15.728687
   3.47755    -15.673585
   3.50031    -15.616054
   3.52306    -15.556099
   3.54581    -15.493791
   3.56857    -15.429182
   3.59132    -15.362377
   3.61407    -15.293441
   3.63683    -15.222494
   3.65958    -15.149665
   3.68233    -15.075145
   3.70508    -14.999156
   3.72784    -14.921972
   3.75059    -14.844050
   3.77334    -14.765876
   3.79610    -14.688165
   3.81885    -14.611919
   3.84160    -14.538576
   3.86436    -14.470132
   3.88711    -14.409440
   3.90986    -14.360357
   3.93262    -14.327670
   3.95537    -14.316061
   3.95537    -14.316061
   3.97026    -14.328383
   3.98516    -14.363206
   4.00006    -14.415871
   4.01495    -14.481613
   4.02985    -14.556570
   4.04474    -14.637951
   4.05964    -14.723708
   4.07453    -14.812474
   4.08943    -14.903246
   4.10432    -14.995332
   4.11922    -15.088198
   4.13411    -15.181475
   4.14901    -15.274878
   4.16391    -15.368183
   4.17880    -15.461207
   4.19370    -15.553841
   4.20859    -15.645964
   4.22349    -15.737494
   4.23838    -15.828351
   4.25328    -15.918473
   4.26817    -16.007854
   4.28307    -16.096375
   4.29796    -16.184051
   4.31286    -16.270886
   4.32775    -16.356774
   4.34265    -16.441729
   4.35755    -16.525740
   4.37244    -16.608791
   4.38734    -16.690860
   4.40223    -16.771930
   4.41713    -16.852001
   4.43202    -16.931030
   4.44692    -17.008911
   4.46181    -17.085859
   4.47671    -17.161752
   4.49160    -17.236579
   4.50650    -17.310331
   4.52139    -17.383000
   4.53629    -17.454582
   4.55119    -17.525066
   4.56608    -17.594445
   4.58098    -17.662721
   4.59587    -17.729881
   4.61077    -17.795913
   4.62566    -17.860832
   4.64056    -17.924617
   4.65545    -17.987269
   4.67035    -18.048789
   4.68524    -18.109158
   4.70014    -18.168386
   4.71503    -18.226460
   4.72993    -18.283388
   4.74483    -18.339161
   4.75972    -18.393772
   4.77462    -18.447227
   4.78951    -18.499501
   4.80441    -18.550624
   4.81930    -18.600568
   4.83420    -18.649344
   4.84909    -18.696939
   4.86399    -18.743357
   4.87888    -18.788599
   4.89378    -18.832657
   4.90867    -18.875533
   4.92357    -18.917220
   4.93847    -18.957719
   4.95336    -18.997029
   4.96826    -19.035142
   4.98315    -19.072057
   4.99805    -19.107777
   5.01294    -19.142304
   5.02784    -19.175633
   5.04273    -19.207758
   5.05763    -19.238687
   5.07252    -19.268409
   5.08742    -19.296920
   5.10232    -19.324240
   5.11721    -19.350349
   5.13211    -19.375252
   5.14700    -19.398950
   5.16190    -19.421437
   5.17679    -19.442714
   5.19169    -19.462778
   5.20658    -19.481629
   5.22148    -19.499267
   5.23637    -19.515695
   5.25127    -19.530907
   5.26616    -19.544905
   5.28106    -19.557688
   5.29596    -19.569254
   5.31085    -19.579603
   5.32575    -19.588742
   5.34064    -19.596651
   5.35554    -19.603345
   5.37043    -19.608825
   5.38533    -19.613089
   5.40022    -19.616130
   5.41512    -19.617958
   5.43001    -19.618571
 
 
# Band-Index    2
   5.43001    -19.499926
   5.41512    -19.499322
   5.40022    -19.497507
   5.38533    -19.494485
   5.37043    -19.490252
   5.35554    -19.484812
   5.34064    -19.478166
   5.32575    -19.470309
   5.31085    -19.461242
   5.29596    -19.450969
   5.28106    -19.439488
   5.26616    -19.426800
   5.25127    -19.412904
   5.23637    -19.397804
   5.22148    -19.381497
   5.20658    -19.363987
   5.19169    -19.345273
   5.17679    -19.325357
   5.16190    -19.304237
   5.14700    -19.281916
   5.13211    -19.258393
   5.11721    -19.233669
   5.10232    -19.207752
   5.08742    -19.180645
   5.07252    -19.152335
   5.05763    -19.122827
   5.04273    -19.092127
   5.02784    -19.060240
   5.01294    -19.027154
   4.99805    -18.992882
   4.98315    -18.957433
   4.96826    -18.920786
   4.95336    -18.882956
   4.93847    -18.843937
   4.92357    -18.803739
   4.90867    -18.762362
   4.89378    -18.719804
   4.87888    -18.676073
   4.86399    -18.631172
   4.84909    -18.585100
   4.83420    -18.537850
   4.81930    -18.489436
   4.80441    -18.439859
   4.78951    -18.389110
   4.77462    -18.337209
   4.75972    -18.284146
   4.74483    -18.229946
   4.72993    -18.174581
   4.71503    -18.118070
   4.70014    -18.060417
   4.68524    -18.001623
   4.67035    -17.941692
   4.65545    -17.880621
   4.64056    -17.818426
   4.62566    -17.755103
   4.61077    -17.690675
   4.59587    -17.625134
   4.58098    -17.558463
   4.56608    -17.490685
   4.55119    -17.421815
   4.53629    -17.351853
   4.52139    -17.280798
   4.50650    -17.208662
   4.49160    -17.135449
   4.47671    -17.061193
   4.46181    -16.985863
   4.44692    -16.909476
   4.43202    -16.832097
   4.41713    -16.753713
   4.40223    -16.674278
   4.38734    -16.593875
   4.37244    -16.512450
   4.35755    -16.430024
   4.34265    -16.346648
   4.32775    -16.262320
   4.31286    -16.177067
   4.29796    -16.090918
   4.28307    -16.003908
   4.26817    -15.916082
   4.25328    -15.827445
   4.23838    -15.738077
   4.22349    -15.648023
   4.20859    -15.557345
   4.19370    -15.466117
   4.17880    -15.374406
   4.16391    -15.282400
   4.14901    -15.190167
   4.13411    -15.097966
   4.11922    -15.005974
   4.10432    -14.914596
   4.08943    -14.824185
   4.07453    -14.735406
   4.05964    -14.649012
   4.04474    -14.566193
   4.02985    -14.488477
   4.01495    -14.418118
   4.00006    -14.358002
   3.98516    -14.311621
   3.97026    -14.282358
   3.95537    -14.272394
   3.95537    -14.272394
   3.93262    -14.281653
   3.90986    -14.308792
   3.88711    -14.351623
   3.86436    -14.406732
   3.84160    -14.470629
   3.81885    -14.540358
   3.79610    -14.613750
   3.77334    -14.689164
   3.75059    -14.765444
   3.72784    -14.841800
   3.70508    -14.917599
   3.68233    -14.992396
   3.65958    -15.065897
   3.63683    -15.137818
   3.61407    -15.207929
   3.59132    -15.276122
   3.56857    -15.342251
   3.54581    -15.406216
   3.52306    -15.467968
   3.50031    -15.527376
   3.47755    -15.584416
   3.45480    -15.639049
   3.43205    -15.691216
   3.40929    -15.740864
   3.38654    -15.788013
   3.36379    -15.832602
   3.34103    -15.874661
   3.31828    -15.914128
   3.29553    -15.951004
   3.27277    -15.985247
   3.25002    -16.016864
   3.22727    -16.045852
   3.20452    -16.072178
   3.18176    -16.095846
   3.15901    -16.116843
   3.13626    -16.135169
   3.11350    -16.150822
   3.09075    -16.163779
   3.06800    -16.174070
   3.04524    -16.181676
   3.02249    -16.186588
   2.99974    -16.188849
   2.97698    -16.188438
   2.95423    -16.185352
   2.93148    -16.179613
   2.90872    -16.171181
   2.88597    -16.160096
   2.86322    -16.146326
   2.84046    -16.129892
   2.81771    -16.110789
   2.79496    -16.089048
   2.77220    -16.064660
   2.74945    -16.037636
   2.72670    -16.007974
   2.70395    -15.975717
   2.68119    -15.940844
   2.65844    -15.903376
   2.63569    -15.863330
   2.61293    -15.820718
   2.59018    -15.775562
   2.56743    -15.727858
   2.54467    -15.677644
   2.52192    -15.624918
   2.49917    -15.569726
   2.47641    -15.512059
   2.45366    -15.451966
   2.43091    -15.389438
   2.40815    -15.324541
   2.38540    -15.257293
   2.36265    -15.187703
   2.33989    -15.115885
   2.31714    -15.041776
   2.29439    -14.965450
   2.27164    -14.886948
   2.24888    -14.806324
   2.22613    -14.723639
   2.20338    -14.638939
   2.18062    -14.552301
   2.15787    -14.463823
   2.13512    -14.373543
   2.11236    -14.281578
   2.08961    -14.188023
   2.06686    -14.092983
   2.04410    -13.996603
   2.02135    -13.899018
   1.99860    -13.800386
   1.97584    -13.700862
   1.95309    -13.600702
   1.93034    -13.500092
   1.90758    -13.399252
   1.88483    -13.298440
   1.86208    -13.197978
   1.83933    -13.098143
   1.81657    -12.999271
   1.79382    -12.901670
   1.77107    -12.805693
   1.74831    -12.711846
   1.72556    -12.622172
   1.70281    -12.613055
   1.70281    -12.613055
   1.68561    -12.632818
   1.66841    -12.704170
   1.65121    -12.789054
   1.63401    -12.881582
   1.61681    -12.979776
   1.59961    -13.082429
   1.58241    -13.188566
   1.56521    -13.297505
   1.54801    -13.408592
   1.53081    -13.521317
   1.51361    -13.635258
   1.49641    -13.750057
   1.47921    -13.865438
   1.46201    -13.981108
   1.44481    -14.096901
   1.42761    -14.212570
   1.41041    -14.328062
   1.39321    -14.443136
   1.37601    -14.557733
   1.35880    -14.671740
   1.34160    -14.785109
   1.32440    -14.897677
   1.30720    -15.009483
   1.29000    -15.120441
   1.27280    -15.230445
   1.25560    -15.339509
   1.23840    -15.447508
   1.22120    -15.554466
   1.20400    -15.660327
   1.18680    -15.765059
   1.16960    -15.868626
   1.15240    -15.970985
   1.13520    -16.072128
   1.11800    -16.172028
   1.10080    -16.270644
   1.08360    -16.367939
   1.06640    -16.463946
   1.04920    -16.558580
   1.03200    -16.651879
   1.01480    -16.743898
   0.99760    -16.834549
   0.98040    -16.923822
   0.96320    -17.011701
   0.94600    -17.098165
   0.92880    -17.183213
   0.91160    -17.266818
   0.89440    -17.348990
   0.87720    -17.429717
   0.86000    -17.508963
   0.84280    -17.586761
   0.82560    -17.663068
   0.80840    -17.737910
   0.79120    -17.811241
   0.77400    -17.883093
   0.75680    -17.953441
   0.73960    -18.022275
   0.72240    -18.089594
   0.70520    -18.155391
   0.68800    -18.219644
   0.67080    -18.282383
   0.65360    -18.343588
   0.63640    -18.403252
   0.61920    -18.461367
   0.60200    -18.517937
   0.58480    -18.572937
   0.56760    -18.626384
   0.55040    -18.678278
   0.53320    -18.728602
   0.51600    -18.777347
   0.49880    -18.824536
   0.48160    -18.870153
   0.46440    -18.914183
   0.44720    -18.956635
   0.43000    -18.997509
   0.41280    -19.036795
   0.39560    -19.074499
   0.37840    -19.110608
   0.36120    -19.145123
   0.34400    -19.178054
   0.32680    -19.209384
   0.30960    -19.239112
   0.29240    -19.267249
   0.27520    -19.293788
   0.25800    -19.318726
   0.24080    -19.342062
   0.22360    -19.363794
   0.20640    -19.383922
   0.18920    -19.402441
   0.17200    -19.419354
   0.15480    -19.434658
   0.13760    -19.448349
   0.12040    -19.460437
   0.10320    -19.470913
   0.08600    -19.479778
   0.06880    -19.487029
   0.05160    -19.492672
   0.03440    -19.496702
   0.01720    -19.499120
   0.00000    -19.499926
 
 
# Band-Index    3
   0.00000     -8.084303
   0.01720     -8.083324
   0.03440     -8.080384
   0.05160     -8.075486
   0.06880     -8.068627
   0.08600     -8.059823
   0.10320     -8.049046
   0.12040     -8.036316
   0.13760     -8.021630
   0.15480     -8.005007
   0.17200     -7.986419
   0.18920     -7.965880
   0.20640     -7.943391
   0.22360     -7.918956
   0.24080     -7.892582
   0.25800     -7.864266
   0.27520     -7.834018
   0.29240     -7.801841
   0.30960     -7.767733
   0.32680     -7.731702
   0.34400     -7.693752
   0.36120     -7.653882
   0.37840     -7.612117
   0.39560     -7.568426
   0.41280     -7.522830
   0.43000     -7.475354
   0.44720     -7.425981
   0.46440     -7.374726
   0.48160     -7.321602
   0.49880     -7.266611
   0.51600     -7.209742
   0.53320     -7.151039
   0.55040     -7.090492
   0.56760     -7.028110
   0.58480     -6.963911
   0.60200     -6.897889
   0.61920     -6.830061
   0.63640     -6.760450
   0.65360     -6.689060
   0.67080     -6.615988
   0.68800     -6.575949
   0.70520     -6.701306
   0.72240     -6.827363
   0.73960     -6.953279
   0.75680     -7.078965
   0.77400     -7.204354
   0.79120     -7.329368
   0.80840     -7.453929
   0.82560     -7.578027
   0.84280     -7.701613
   0.86000     -7.824526
   0.87720     -7.946923
   0.89440     -8.068619
   0.91160     -8.189654
   0.92880     -8.309932
   0.94600     -8.429454
   0.96320     -8.548163
   0.98040     -8.666035
   0.99760     -8.783059
   1.01480     -8.899198
   1.03200     -9.014392
   1.04920     -9.128664
   1.06640     -9.241983
   1.08360     -9.354299
   1.10080     -9.465621
   1.11800     -9.575899
   1.13520     -9.685134
   1.15240     -9.793296
   1.16960     -9.900394
   1.18680    -10.006380
   1.20400    -10.111267
   1.22120    -10.215031
   1.23840    -10.317646
   1.25560    -10.419117
   1.27280    -10.519409
   1.29000    -10.618520
   1.30720    -10.716470
   1.32440    -10.813200
   1.34160    -10.908751
   1.35880    -11.003078
   1.37601    -11.096157
   1.39321    -11.188022
   1.41041    -11.278609
   1.42761    -11.367965
   1.44481    -11.456057
   1.46201    -11.542844
   1.47921    -11.628379
   1.49641    -11.712607
   1.51361    -11.795563
   1.53081    -11.877175
   1.54801    -11.957501
   1.56521    -12.036473
   1.58241    -12.114093
   1.59961    -12.190334
   1.61681    -12.265121
   1.63401    -12.338325
   1.65121    -12.409729
   1.66841    -12.478442
   1.68561    -12.539852
   1.70281    -12.556526
   1.70281    -12.556526
   1.72556    -12.555059
   1.74831    -12.488968
   1.77107    -12.433985
   1.79382    -12.391205
   1.81657    -12.359196
   1.83933    -12.335876
   1.86208    -12.319187
   1.88483    -12.307222
   1.90758    -12.298447
   1.93034    -12.291571
   1.95309    -12.285609
   1.97584    -12.279779
   1.99860    -12.273488
   2.02135    -12.266282
   2.04410    -12.257769
   2.06686    -12.247722
   2.08961    -12.235941
   2.11236    -12.222222
   2.13512    -12.206476
   2.15787    -12.188621
   2.18062    -12.168552
   2.20338    -12.146245
   2.22613    -12.121682
   2.24888    -12.094783
   2.27164    -12.065560
   2.29439    -12.034031
   2.31714    -12.000155
   2.33989    -11.963940
   2.36265    -11.925400
   2.38540    -11.884571
   2.40815    -11.841416
   2.43091    -11.795976
   2.45366    -11.748309
   2.47641    -11.698405
   2.49917    -11.646340
   2.52192    -11.592083
   2.54467    -11.535690
   2.56743    -11.477203
   2.59018    -11.416692
   2.61293    -11.354177
   2.63569    -11.289719
   2.65844    -11.223370
   2.68119    -11.155225
   2.70395    -11.085320
   2.72670    -11.013747
   2.74945    -10.940612
   2.77220    -10.866010
   2.79496    -10.790037
   2.81771    -10.712835
   2.84046    -10.634620
   2.86322    -10.555518
   2.88597    -10.475774
   2.90872    -10.395631
   2.93148    -10.315418
   2.95423    -10.235513
   2.97698    -10.156406
   2.99974    -10.078737
   3.02249    -10.003275
   3.04524     -9.931012
   3.06800     -9.863308
   3.09075     -9.801866
   3.11350     -9.748978
   3.13626     -9.707429
   3.15901     -9.680593
   3.18176     -9.672097
   3.20452     -9.685082
   3.22727     -9.721136
   3.25002     -9.779518
   3.27277     -9.857546
   3.29553     -9.951761
   3.31828    -10.058671
   3.34103    -10.175307
   3.36379    -10.299218
   3.38654    -10.428483
   3.40929    -10.561622
   3.43205    -10.697432
   3.45480    -10.835040
   3.47755    -10.973684
   3.50031    -11.112804
   3.52306    -11.251876
   3.54581    -11.390513
   3.56857    -11.528357
   3.59132    -11.665072
   3.61407    -11.800321
   3.63683    -11.933853
   3.65958    -12.065308
   3.68233    -12.194405
   3.70508    -12.320727
   3.72784    -12.443906
   3.75059    -12.563377
   3.77334    -12.678453
   3.79610    -12.788221
   3.81885    -12.891517
   3.84160    -12.986693
