 #Energy       XX              YY             ZZ              XY              YZ              XZ       
  0.0000  0.33087197E+00  0.33087197E+00  0.33087197E+00  0.10000000E+01  0.10000000E+01  0.10000000E+01
  0.0298  0.33163497E+00  0.33163497E+00  0.33163497E+00  0.10000000E+01  0.10000000E+01  0.10000000E+01
  0.0597  0.33377356E+00  0.33377356E+00  0.33377356E+00  0.10000000E+01  0.10000000E+01  0.10000000E+01
  0.0895  0.33689079E+00  0.33689079E+00  0.33689079E+00  0.10000000E+01  0.10000000E+01  0.10000000E+01
  0.1194  0.34048006E+00  0.34048006E+00  0.34048006E+00  0.10000000E+01  0.10000000E+01  0.10000000E+01
  0.1492  0.34407406E+00  0.34407406E+00  0.34407406E+00  0.10000000E+01  0.10000000E+01  0.10000000E+01
  0.1791  0.34732709E+00  0.34732709E+00  0.34732709E+00  0.10000000E+01  0.10000000E+01  0.10000000E+01
  0.2089  0.35004599E+00  0.35004599E+00  0.35004599E+00  0.10000000E+01  0.10000000E+01  0.10000000E+01
  0.2387  0.35217226E+00  0.35217226E+00  0.35217226E+00  0.10000000E+01  0.10000000E+01  0.10000000E+01
  0.2686  0.35375698E+00  0.35375698E+00  0.35375698E+00  0.10000000E+01  0.10000000E+01  0.10000000E+01
  0.2984  0.35490958E+00  0.35490958E+00  0.35490958E+00  0.10000000E+01  0.10000000E+01  0.10000000E+01
  0.3283  0.35576811E+00  0.35576811E+00  0.35576811E+00  0.10000000E+01  0.10000000E+01  0.10000000E+01
  0.3581  0.35646694E+00  0.35646694E+00  0.35646694E+00  0.10000000E+01  0.10000000E+01  0.10000000E+01
  0.3879  0.35711198E+00  0.35711198E+00  0.35711198E+00  0.10000000E+01  0.10000000E+01  0.10000000E+01
  0.4178  0.35777594E+00  0.35777594E+00  0.35777594E+00  0.10000000E+01  0.10000000E+01  0.10000000E+01
  0.4476  0.35849456E+00  0.35849456E+00  0.35849456E+00  0.10000000E+01  0.10000000E+01  0.10000000E+01
  0.4775  0.35927962E+00  0.35927962E+00  0.35927962E+00  0.10000000E+01  0.10000000E+01  0.10000000E+01
  0.5073  0.36013169E+00  0.36013169E+00  0.36013169E+00  0.10000000E+01  0.10000000E+01  0.10000000E+01
  0.5372  0.36105397E+00  0.36105397E+00  0.36105397E+00  0.10000000E+01  0.10000000E+01  0.10000000E+01
  0.5670  0.36206365E+00  0.36206365E+00  0.36206365E+00  0.10000000E+01  0.10000000E+01  0.10000000E+01
  0.5968  0.36318428E+00  0.36318428E+00  0.36318428E+00  0.10000000E+01  0.10000000E+01  0.10000000E+01
  0.6267  0.36443799E+00  0.36443799E+00  0.36443799E+00  0.10000000E+01  0.10000000E+01  0.10000000E+01
  0.6565  0.36582504E+00  0.36582504E+00  0.36582504E+00  0.10000000E+01  0.10000000E+01  0.10000000E+01
  0.6864  0.36730151E+00  0.36730151E+00  0.36730151E+00  0.10000000E+01  0.10000000E+01  0.10000000E+01
  0.7162  0.36876546E+00  0.36876546E+00  0.36876546E+00  0.10000000E+01  0.10000000E+01  0.10000000E+01
  0.7460  0.37005666E+00  0.37005666E+00  0.37005666E+00  0.10000000E+01  0.10000000E+01  0.10000000E+01
  0.7759  0.37096894E+00  0.37096894E+00  0.37096894E+00  0.10000000E+01  0.10000000E+01  0.10000000E+01
  0.8057  0.37127619E+00  0.37127619E+00  0.37127619E+00  0.10000000E+01  0.10000000E+01  0.10000000E+01
  0.8356  0.37076818E+00  0.37076818E+00  0.37076818E+00  0.10000000E+01  0.10000000E+01  0.10000000E+01
  0.8654  0.36928269E+00  0.36928269E+00  0.36928269E+00  0.10000000E+01  0.10000000E+01  0.10000000E+01
  0.8953  0.36674334E+00  0.36674334E+00  0.36674334E+00  0.10000000E+01  0.10000000E+01  0.10000000E+01
  0.9251  0.36319319E+00  0.36319319E+00  0.36319319E+00  0.10000000E+01  0.10000000E+01  0.10000000E+01
  0.9549  0.35883218E+00  0.35883218E+00  0.35883218E+00  0.10000000E+01  0.10000000E+01  0.10000000E+01
  0.9848  0.35403057E+00  0.35403057E+00  0.35403057E+00  0.10000000E+01  0.10000000E+01  0.10000000E+01
  1.0146  0.34932116E+00  0.34932116E+00  0.34932116E+00  0.10000000E+01  0.10000000E+01  0.10000000E+01
  1.0445  0.34531953E+00  0.34531953E+00  0.34531953E+00  0.10000000E+01  0.10000000E+01  0.10000000E+01
  1.0743  0.34258998E+00  0.34258998E+00  0.34258998E+00  0.10000000E+01  0.10000000E+01  0.10000000E+01
  1.1041  0.34150390E+00  0.34150390E+00  0.34150390E+00  0.10000000E+01  0.10000000E+01  0.10000000E+01
  1.1340  0.34213757E+00  0.34213757E+00  0.34213757E+00  0.10000000E+01  0.10000000E+01  0.10000000E+01
  1.1638  0.34429629E+00  0.34429629E+00  0.34429629E+00  0.10000000E+01  0.10000000E+01  0.10000000E+01
  1.1937  0.34761411E+00  0.34761411E+00  0.34761411E+00  0.10000000E+01  0.10000000E+01  0.10000000E+01
  1.2235  0.35169624E+00  0.35169624E+00  0.35169624E+00  0.10000000E+01  0.10000000E+01  0.10000000E+01
  1.2534  0.35620955E+00  0.35620955E+00  0.35620955E+00  0.10000000E+01  0.10000000E+01  0.10000000E+01
  1.2832  0.36093506E+00  0.36093506E+00  0.36093506E+00  0.10000000E+01  0.10000000E+01  0.10000000E+01
  1.3130  0.36576555E+00  0.36576555E+00  0.36576555E+00  0.10000000E+01  0.10000000E+01  0.10000000E+01
  1.3429  0.37067826E+00  0.37067826E+00  0.37067826E+00  0.10000000E+01  0.10000000E+01  0.10000000E+01
  1.3727  0.37570430E+00  0.37570430E+00  0.37570430E+00  0.10000000E+01  0.10000000E+01  0.10000000E+01
  1.4026  0.38088675E+00  0.38088675E+00  0.38088675E+00  0.10000000E+01  0.10000000E+01  0.10000000E+01
  1.4324  0.38624974E+00  0.38624974E+00  0.38624974E+00  0.10000000E+01  0.10000000E+01  0.10000000E+01
  1.4622  0.39177458E+00  0.39177458E+00  0.39177458E+00  0.10000000E+01  0.10000000E+01  0.10000000E+01
  1.4921  0.39738736E+00  0.39738736E+00  0.39738736E+00  0.10000000E+01  0.10000000E+01  0.10000000E+01
  1.5219  0.40295842E+00  0.40295842E+00  0.40295842E+00  0.10000000E+01  0.10000000E+01  0.10000000E+01
  1.5518  0.40831802E+00  0.40831802E+00  0.40831802E+00  0.10000000E+01  0.10000000E+01  0.10000000E+01
  1.5816  0.41327496E+00  0.41327496E+00  0.41327496E+00  0.10000000E+01  0.10000000E+01  0.10000000E+01
  1.6115  0.41764347E+00  0.41764347E+00  0.41764347E+00  0.10000000E+01  0.10000000E+01  0.10000000E+01
  1.6413  0.42126419E+00  0.42126419E+00  0.42126419E+00  0.10000000E+01  0.10000000E+01  0.10000000E+01
  1.6711  0.42402612E+00  0.42402612E+00  0.42402612E+00  0.10000000E+01  0.10000000E+01  0.10000000E+01
  1.7010  0.42587800E+00  0.42587800E+00  0.42587800E+00  0.10000000E+01  0.10000000E+01  0.10000000E+01
  1.7308  0.42684703E+00  0.42684703E+00  0.42684703E+00  0.10000000E+01  0.10000000E+01  0.10000000E+01
  1.7607  0.42704723E+00  0.42704723E+00  0.42704723E+00  0.10000000E+01  0.10000000E+01  0.10000000E+01
  1.7905  0.42667414E+00  0.42667414E+00  0.42667414E+00  0.10000000E+01  0.10000000E+01  0.10000000E+01
  1.8204  0.42598921E+00  0.42598921E+00  0.42598921E+00  0.10000000E+01  0.10000000E+01  0.10000000E+01
  1.8502  0.42527475E+00  0.42527475E+00  0.42527475E+00  0.10000000E+01  0.10000000E+01  0.10000000E+01
  1.8800  0.42477410E+00  0.42477410E+00  0.42477410E+00  0.10000000E+01  0.10000000E+01  0.10000000E+01
  1.9099  0.42464043E+00  0.42464043E+00  0.42464043E+00  0.10000000E+01  0.10000000E+01  0.10000000E+01
  1.9397  0.42490518E+00  0.42490518E+00  0.42490518E+00  0.10000000E+01  0.10000000E+01  0.10000000E+01
  1.9696  0.42549529E+00  0.42549529E+00  0.42549529E+00  0.10000000E+01  0.10000000E+01  0.10000000E+01
  1.9994  0.42627958E+00  0.42627958E+00  0.42627958E+00  0.10000000E+01  0.10000000E+01  0.10000000E+01
  2.0292  0.42713276E+00  0.42713276E+00  0.42713276E+00  0.10000000E+01  0.10000000E+01  0.10000000E+01
  2.0591  0.42797952E+00  0.42797952E+00  0.42797952E+00  0.10000000E+01  0.10000000E+01  0.10000000E+01
  2.0889  0.42882605E+00  0.42882605E+00  0.42882605E+00  0.10000000E+01  0.10000000E+01  0.10000000E+01
  2.1188  0.42975247E+00  0.42975247E+00  0.42975247E+00  0.10000000E+01  0.10000000E+01  0.10000000E+01
  2.1486  0.43088025E+00  0.43088025E+00  0.43088025E+00  0.10000000E+01  0.10000000E+01  0.10000000E+01
  2.1785  0.43232335E+00  0.43232335E+00  0.43232335E+00  0.10000000E+01  0.10000000E+01  0.10000000E+01
  2.2083  0.43413710E+00  0.43413710E+00  0.43413710E+00  0.10000000E+01  0.10000000E+01  0.10000000E+01
  2.2381  0.43628098E+00  0.43628098E+00  0.43628098E+00  0.10000000E+01  0.10000000E+01  0.10000000E+01
  2.2680  0.43861276E+00  0.43861276E+00  0.43861276E+00  0.10000000E+01  0.10000000E+01  0.10000000E+01
  2.2978  0.44090788E+00  0.44090788E+00  0.44090788E+00  0.10000000E+01  0.10000000E+01  0.10000000E+01
  2.3277  0.44290074E+00  0.44290074E+00  0.44290074E+00  0.10000000E+01  0.10000000E+01  0.10000000E+01
  2.3575  0.44432056E+00  0.44432056E+00  0.44432056E+00  0.10000000E+01  0.10000000E+01  0.10000000E+01
  2.3873  0.44493479E+00  0.44493479E+00  0.44493479E+00  0.10000000E+01  0.10000000E+01  0.10000000E+01
  2.4172  0.44457944E+00  0.44457944E+00  0.44457944E+00  0.10000000E+01  0.10000000E+01  0.10000000E+01
  2.4470  0.44318229E+00  0.44318229E+00  0.44318229E+00  0.10000000E+01  0.10000000E+01  0.10000000E+01
  2.4769  0.44078615E+00  0.44078615E+00  0.44078615E+00  0.10000000E+01  0.10000000E+01  0.10000000E+01
  2.5067  0.43755246E+00  0.43755246E+00  0.43755246E+00  0.10000000E+01  0.10000000E+01  0.10000000E+01
  2.5366  0.43374647E+00  0.43374647E+00  0.43374647E+00  0.10000000E+01  0.10000000E+01  0.10000000E+01
  2.5664  0.42968026E+00  0.42968026E+00  0.42968026E+00  0.10000000E+01  0.10000000E+01  0.10000000E+01
  2.5962  0.42564294E+00  0.42564294E+00  0.42564294E+00  0.10000000E+01  0.10000000E+01  0.10000000E+01
  2.6261  0.42181852E+00  0.42181852E+00  0.42181852E+00  0.10000000E+01  0.10000000E+01  0.10000000E+01
  2.6559  0.41824780E+00  0.41824780E+00  0.41824780E+00  0.10000000E+01  0.10000000E+01  0.10000000E+01
  2.6858  0.41483000E+00  0.41483000E+00  0.41483000E+00  0.10000000E+01  0.10000000E+01  0.10000000E+01
  2.7156  0.41137844E+00  0.41137844E+00  0.41137844E+00  0.10000000E+01  0.10000000E+01  0.10000000E+01
  2.7454  0.40769030E+00  0.40769030E+00  0.40769030E+00  0.10000000E+01  0.10000000E+01  0.10000000E+01
  2.7753  0.40361578E+00  0.40361578E+00  0.40361578E+00  0.10000000E+01  0.10000000E+01  0.10000000E+01
  2.8051  0.39910141E+00  0.39910141E+00  0.39910141E+00  0.10000000E+01  0.10000000E+01  0.10000000E+01
  2.8350  0.39422151E+00  0.39422151E+00  0.39422151E+00  0.10000000E+01  0.10000000E+01  0.10000000E+01
  2.8648  0.38916887E+00  0.38916887E+00  0.38916887E+00  0.10000000E+01  0.10000000E+01  0.10000000E+01
  2.8947  0.38421407E+00  0.38421407E+00  0.38421407E+00  0.10000000E+01  0.10000000E+01  0.10000000E+01
  2.9245  0.37966449E+00  0.37966449E+00  0.37966449E+00  0.10000000E+01  0.10000000E+01  0.10000000E+01
  2.9543  0.37581519E+00  0.37581519E+00  0.37581519E+00  0.10000000E+01  0.10000000E+01  0.10000000E+01
  2.9842  0.37290568E+00  0.37290568E+00  0.37290568E+00  0.10000000E+01  0.10000000E+01  0.10000000E+01
  3.0140  0.37112353E+00  0.37112353E+00  0.37112353E+00  0.10000000E+01  0.10000000E+01  0.10000000E+01
  3.0439  0.37059480E+00  0.37059480E+00  0.37059480E+00  0.10000000E+01  0.10000000E+01  0.10000000E+01
  3.0737  0.37138292E+00  0.37138292E+00  0.37138292E+00  0.10000000E+01  0.10000000E+01  0.10000000E+01
  3.1036  0.37347432E+00  0.37347432E+00  0.37347432E+00  0.10000000E+01  0.10000000E+01  0.10000000E+01
  3.1334  0.37675733E+00  0.37675733E+00  0.37675733E+00  0.10000000E+01  0.10000000E+01  0.10000000E+01
  3.1632  0.38102884E+00  0.38102884E+00  0.38102884E+00  0.10000000E+01  0.10000000E+01  0.10000000E+01
  3.1931  0.38601832E+00  0.38601832E+00  0.38601832E+00  0.10000000E+01  0.10000000E+01  0.10000000E+01
  3.2229  0.39143294E+00  0.39143294E+00  0.39143294E+00  0.10000000E+01  0.10000000E+01  0.10000000E+01
  3.2528  0.39700810E+00  0.39700810E+00  0.39700810E+00  0.10000000E+01  0.10000000E+01  0.10000000E+01
  3.2826  0.40254255E+00  0.40254255E+00  0.40254255E+00  0.10000000E+01  0.10000000E+01  0.10000000E+01
  3.3124  0.40791708E+00  0.40791708E+00  0.40791708E+00  0.10000000E+01  0.10000000E+01  0.10000000E+01
  3.3423  0.41309213E+00  0.41309213E+00  0.41309213E+00  0.10000000E+01  0.10000000E+01  0.10000000E+01
  3.3721  0.41808564E+00  0.41808564E+00  0.41808564E+00  0.10000000E+01  0.10000000E+01  0.10000000E+01
  3.4020  0.42294445E+00  0.42294445E+00  0.42294445E+00  0.10000000E+01  0.10000000E+01  0.10000000E+01
  3.4318  0.42771444E+00  0.42771444E+00  0.42771444E+00  0.10000000E+01  0.10000000E+01  0.10000000E+01
  3.4617  0.43241661E+00  0.43241661E+00  0.43241661E+00  0.10000000E+01  0.10000000E+01  0.10000000E+01
  3.4915  0.43704248E+00  0.43704248E+00  0.43704248E+00  0.10000000E+01  0.10000000E+01  0.10000000E+01
  3.5213  0.44155661E+00  0.44155661E+00  0.44155661E+00  0.10000000E+01  0.10000000E+01  0.10000000E+01
  3.5512  0.44591723E+00  0.44591723E+00  0.44591723E+00  0.10000000E+01  0.10000000E+01  0.10000000E+01
  3.5810  0.45009554E+00  0.45009554E+00  0.45009554E+00  0.10000000E+01  0.10000000E+01  0.10000000E+01
  3.6109  0.45409377E+00  0.45409377E+00  0.45409377E+00  0.10000000E+01  0.10000000E+01  0.10000000E+01
  3.6407  0.45795075E+00  0.45795075E+00  0.45795075E+00  0.10000000E+01  0.10000000E+01  0.10000000E+01
  3.6705  0.46174372E+00  0.46174372E+00  0.46174372E+00  0.10000000E+01  0.10000000E+01  0.10000000E+01
  3.7004  0.46558007E+00  0.46558007E+00  0.46558007E+00  0.10000000E+01  0.10000000E+01  0.10000000E+01
  3.7302  0.46958936E+00  0.46958936E+00  0.46958936E+00  0.10000000E+01  0.10000000E+01  0.10000000E+01
  3.7601  0.47390755E+00  0.47390755E+00  0.47390755E+00  0.10000000E+01  0.10000000E+01  0.10000000E+01
  3.7899  0.47867249E+00  0.47867249E+00  0.47867249E+00  0.10000000E+01  0.10000000E+01  0.10000000E+01
  3.8198  0.48400893E+00  0.48400893E+00  0.48400893E+00  0.10000000E+01  0.10000000E+01  0.10000000E+01
  3.8496  0.49001485E+00  0.49001485E+00  0.49001485E+00  0.10000000E+01  0.10000000E+01  0.10000000E+01
  3.8794  0.49674102E+00  0.49674102E+00  0.49674102E+00  0.10000000E+01  0.10000000E+01  0.10000000E+01
  3.9093  0.50416825E+00  0.50416825E+00  0.50416825E+00  0.10000000E+01  0.10000000E+01  0.10000000E+01
  3.9391  0.51220185E+00  0.51220185E+00  0.51220185E+00  0.10000000E+01  0.10000000E+01  0.10000000E+01
  3.9690  0.52067599E+00  0.52067599E+00  0.52067599E+00  0.10000000E+01  0.10000000E+01  0.10000000E+01
  3.9988  0.52937098E+00  0.52937098E+00  0.52937098E+00  0.10000000E+01  0.10000000E+01  0.10000000E+01
  4.0286  0.53804635E+00  0.53804635E+00  0.53804635E+00  0.10000000E+01  0.10000000E+01  0.10000000E+01
  4.0585  0.54646983E+00  0.54646983E+00  0.54646983E+00  0.10000000E+01  0.10000000E+01  0.10000000E+01
  4.0883  0.55445309E+00  0.55445309E+00  0.55445309E+00  0.10000000E+01  0.10000000E+01  0.10000000E+01
  4.1182  0.56187678E+00  0.56187678E+00  0.56187678E+00  0.10000000E+01  0.10000000E+01  0.10000000E+01
  4.1480  0.56871650E+00  0.56871650E+00  0.56871650E+00  0.10000000E+01  0.10000000E+01  0.10000000E+01
  4.1779  0.57505858E+00  0.57505858E+00  0.57505858E+00  0.10000000E+01  0.10000000E+01  0.10000000E+01
  4.2077  0.58109655E+00  0.58109655E+00  0.58109655E+00  0.10000000E+01  0.10000000E+01  0.10000000E+01
  4.2375  0.58709582E+00  0.58709582E+00  0.58709582E+00  0.10000000E+01  0.10000000E+01  0.10000000E+01
  4.2674  0.59333128E+00  0.59333128E+00  0.59333128E+00  0.10000000E+01  0.10000000E+01  0.10000000E+01
  4.2972  0.60000904E+00  0.60000904E+00  0.60000904E+00  0.10000000E+01  0.10000000E+01  0.10000000E+01
  4.3271  0.60720708E+00  0.60720708E+00  0.60720708E+00  0.10000000E+01  0.10000000E+01  0.10000000E+01
  4.3569  0.61484931E+00  0.61484931E+00  0.61484931E+00  0.10000000E+01  0.10000000E+01  0.10000000E+01
  4.3867  0.62271642E+00  0.62271642E+00  0.62271642E+00  0.10000000E+01  0.10000000E+01  0.10000000E+01
  4.4166  0.63047694E+00  0.63047694E+00  0.63047694E+00  0.10000000E+01  0.10000000E+01  0.10000000E+01
  4.4464  0.63772239E+00  0.63772239E+00  0.63772239E+00  0.10000000E+01  0.10000000E+01  0.10000000E+01
  4.4763  0.64399601E+00  0.64399601E+00  0.64399601E+00  0.10000000E+01  0.10000000E+01  0.10000000E+01
  4.5061  0.64881857E+00  0.64881857E+00  0.64881857E+00  0.10000000E+01  0.10000000E+01  0.10000000E+01
  4.5360  0.65172377E+00  0.65172377E+00  0.65172377E+00  0.10000000E+01  0.10000000E+01  0.10000000E+01
  4.5658  0.65230005E+00  0.65230005E+00  0.65230005E+00  0.10000000E+01  0.10000000E+01  0.10000000E+01
  4.5956  0.65024977E+00  0.65024977E+00  0.65024977E+00  0.10000000E+01  0.10000000E+01  0.10000000E+01
  4.6255  0.64544352E+00  0.64544352E+00  0.64544352E+00  0.10000000E+01  0.10000000E+01  0.10000000E+01
  4.6553  0.63795253E+00  0.63795253E+00  0.63795253E+00  0.10000000E+01  0.10000000E+01  0.10000000E+01
  4.6852  0.62802839E+00  0.62802839E+00  0.62802839E+00  0.10000000E+01  0.10000000E+01  0.10000000E+01
  4.7150  0.61604887E+00  0.61604887E+00  0.61604887E+00  0.10000000E+01  0.10000000E+01  0.10000000E+01
  4.7449  0.60244809E+00  0.60244809E+00  0.60244809E+00  0.10000000E+01  0.10000000E+01  0.10000000E+01
  4.7747  0.58771127E+00  0.58771127E+00  0.58771127E+00  0.10000000E+01  0.10000000E+01  0.10000000E+01
  4.8045  0.57241769E+00  0.57241769E+00  0.57241769E+00  0.10000000E+01  0.10000000E+01  0.10000000E+01
  4.8344  0.55731029E+00  0.55731029E+00  0.55731029E+00  0.10000000E+01  0.10000000E+01  0.10000000E+01
  4.8642  0.54331908E+00  0.54331908E+00  0.54331908E+00  0.10000000E+01  0.10000000E+01  0.10000000E+01
  4.8941  0.53143399E+00  0.53143399E+00  0.53143399E+00  0.10000000E+01  0.10000000E+01  0.10000000E+01
  4.9239  0.52248428E+00  0.52248428E+00  0.52248428E+00  0.10000000E+01  0.10000000E+01  0.10000000E+01
  4.9537  0.51691819E+00  0.51691819E+00  0.51691819E+00  0.10000000E+01  0.10000000E+01  0.10000000E+01
  4.9836  0.51472303E+00  0.51472303E+00  0.51472303E+00  0.10000000E+01  0.10000000E+01  0.10000000E+01
  5.0134  0.51549431E+00  0.51549431E+00  0.51549431E+00  0.10000000E+01  0.10000000E+01  0.10000000E+01
  5.0433  0.51859161E+00  0.51859161E+00  0.51859161E+00  0.10000000E+01  0.10000000E+01  0.10000000E+01
  5.0731  0.52329909E+00  0.52329909E+00  0.52329909E+00  0.10000000E+01  0.10000000E+01  0.10000000E+01
  5.1030  0.52892725E+00  0.52892725E+00  0.52892725E+00  0.10000000E+01  0.10000000E+01  0.10000000E+01
  5.1328  0.53487381E+00  0.53487381E+00  0.53487381E+00  0.10000000E+01  0.10000000E+01  0.10000000E+01
  5.1626  0.54063950E+00  0.54063950E+00  0.54063950E+00  0.10000000E+01  0.10000000E+01  0.10000000E+01
  5.1925  0.54582646E+00  0.54582646E+00  0.54582646E+00  0.10000000E+01  0.10000000E+01  0.10000000E+01
  5.2223  0.55014439E+00  0.55014439E+00  0.55014439E+00  0.10000000E+01  0.10000000E+01  0.10000000E+01
  5.2522  0.55340906E+00  0.55340906E+00  0.55340906E+00  0.10000000E+01  0.10000000E+01  0.10000000E+01
  5.2820  0.55555435E+00  0.55555435E+00  0.55555435E+00  0.10000000E+01  0.10000000E+01  0.10000000E+01
  5.3118  0.55664452E+00  0.55664452E+00  0.55664452E+00  0.10000000E+01  0.10000000E+01  0.10000000E+01
  5.3417  0.55686876E+00  0.55686876E+00  0.55686876E+00  0.10000000E+01  0.10000000E+01  0.10000000E+01
  5.3715  0.55653465E+00  0.55653465E+00  0.55653465E+00  0.10000000E+01  0.10000000E+01  0.10000000E+01
  5.4014  0.55603348E+00  0.55603348E+00  0.55603348E+00  0.10000000E+01  0.10000000E+01  0.10000000E+01
  5.4312  0.55578533E+00  0.55578533E+00  0.55578533E+00  0.10000000E+01  0.10000000E+01  0.10000000E+01
  5.4611  0.55616908E+00  0.55616908E+00  0.55616908E+00  0.10000000E+01  0.10000000E+01  0.10000000E+01
  5.4909  0.55747781E+00  0.55747781E+00  0.55747781E+00  0.10000000E+01  0.10000000E+01  0.10000000E+01
  5.5207  0.55985860E+00  0.55985860E+00  0.55985860E+00  0.10000000E+01  0.10000000E+01  0.10000000E+01
  5.5506  0.56330553E+00  0.56330553E+00  0.56330553E+00  0.10000000E+01  0.10000000E+01  0.10000000E+01
  5.5804  0.56766832E+00  0.56766832E+00  0.56766832E+00  0.10000000E+01  0.10000000E+01  0.10000000E+01
  5.6103  0.57265480E+00  0.57265480E+00  0.57265480E+00  0.10000000E+01  0.10000000E+01  0.10000000E+01
