#K-Path(1/A)         Spin-Up(eV)   Spin-down(eV)
# NKPTS & NBANDS: 200  17
# Band-Index    1
   0.00000    -19.314991    -19.314991
   0.16111    -19.313152    -19.313152
   0.32221    -19.307151    -19.307151
   0.48332    -19.297550    -19.297550
   0.64443    -19.284897    -19.284897
   0.80554    -19.268293    -19.268293
   0.96664    -19.248930    -19.248930
   1.12775    -19.225396    -19.225396
   1.28886    -19.200000    -19.200000
   1.44997    -19.171893    -19.171893
   1.61107    -19.141333    -19.141333
   1.77218    -19.108580    -19.108580
   1.93329    -19.075003    -19.075003
   2.09440    -19.038788    -19.038788
   2.25550    -19.001297    -19.001297
   2.41661    -18.962856    -18.962856
   2.57772    -18.923789    -18.923789
   2.73882    -18.884425    -18.884425
   2.89993    -18.846245    -18.846245
   3.06104    -18.808383    -18.808383
   3.22215    -18.770152    -18.770152
   3.38325    -18.732375    -18.732375
   3.54436    -18.696291    -18.696291
   3.70547    -18.661646    -18.661646
   3.86658    -18.627086    -18.627086
   4.02768    -18.595916    -18.595916
   4.18879    -18.566707    -18.566707
   4.34990    -18.540164    -18.540164
   4.51100    -18.515253    -18.515253
   4.67211    -18.492554    -18.492554
   4.83322    -18.471000    -18.471000
   4.99433    -18.452799    -18.452799
   5.15543    -18.436844    -18.436844
   5.31654    -18.423113    -18.423113
   5.47765    -18.411571    -18.411571
   5.63876    -18.401512    -18.401512
   5.79986    -18.394276    -18.394276
   5.96097    -18.389130    -18.389130
   6.12208    -18.385614    -18.385614
   6.28319    -18.384594    -18.384594
   6.28319    -18.384594    -18.384594
   6.36374    -18.384453    -18.384453
   6.44429    -18.384031    -18.384031
   6.52485    -18.383974    -18.383974
   6.60540    -18.383019    -18.383019
   6.68595    -18.382462    -18.382462
   6.76651    -18.381011    -18.381011
   6.84706    -18.379345    -18.379345
   6.92761    -18.377526    -18.377526
   7.00817    -18.376387    -18.376387
   7.08872    -18.375242    -18.375242
   7.16928    -18.376093    -18.376093
   7.24983    -18.378719    -18.378719
   7.33038    -18.381593    -18.381593
   7.41094    -18.385439    -18.385439
   7.49149    -18.389065    -18.389065
   7.57204    -18.392726    -18.392726
   7.65260    -18.396591    -18.396591
   7.73315    -18.400521    -18.400521
   7.81370    -18.404485    -18.404485
   7.89426    -18.408456    -18.408456
   7.97481    -18.412410    -18.412410
   8.05537    -18.416318    -18.416318
   8.13592    -18.420056    -18.420056
   8.21647    -18.423805    -18.423805
   8.29703    -18.427433    -18.427433
   8.37758    -18.431860    -18.431860
   8.45813    -18.434619    -18.434619
   8.53869    -18.437773    -18.437773
   8.61924    -18.440720    -18.440720
   8.69980    -18.443443    -18.443443
   8.78035    -18.446175    -18.446175
   8.86090    -18.448402    -18.448402
   8.94146    -18.450359    -18.450359
   9.02201    -18.452163    -18.452163
   9.10256    -18.453552    -18.453552
   9.18312    -18.454640    -18.454640
   9.26367    -18.455420    -18.455420
   9.34422    -18.456134    -18.456134
   9.42478    -18.456576    -18.456576
   9.42478    -18.456576    -18.456576
   9.63015    -18.493770    -18.493770
   9.83552    -18.534926    -18.534926
  10.04089    -18.579057    -18.579057
  10.24627    -18.625863    -18.625863
  10.45164    -18.674999    -18.674999
  10.65701    -18.725650    -18.725650
  10.86238    -18.776488    -18.776488
  11.06776    -18.827689    -18.827689
  11.27313    -18.878380    -18.878380
  11.47850    -18.928008    -18.928008
  11.68387    -18.975524    -18.975524
  11.88925    -19.020309    -19.020309
  12.09462    -19.062524    -19.062524
  12.29999    -19.100400    -19.100400
  12.50536    -19.134306    -19.134306
  12.71074    -19.163809    -19.163809
  12.91611    -19.188594    -19.188594
  13.12148    -19.208053    -19.208053
  13.32685    -19.222113    -19.222113
  13.53222    -19.230610    -19.230610
  13.73760    -19.233449    -19.233449
  13.94297    -19.231127    -19.231127
  14.14834    -19.222367    -19.222367
  14.35371    -19.208053    -19.208053
  14.55909    -19.188070    -19.188070
  14.76446    -19.163319    -19.163319
  14.96983    -19.134085    -19.134085
  15.17520    -19.100306    -19.100306
  15.38058    -19.062005    -19.062005
  15.58595    -19.020309    -19.020309
  15.79132    -18.975240    -18.975240
  15.99669    -18.928114    -18.928114
  16.20207    -18.878353    -18.878353
  16.40744    -18.827810    -18.827810
  16.61281    -18.776652    -18.776652
  16.81818    -18.725453    -18.725453
  17.02355    -18.675055    -18.675055
  17.22893    -18.626001    -18.626001
  17.43430    -18.579338    -18.579338
  17.43430    -18.579338    -18.579338
  17.60518    -18.604877    -18.604877
  17.77606    -18.630050    -18.630050
  17.94694    -18.654273    -18.654273
  18.11782    -18.677637    -18.677637
  18.28870    -18.699021    -18.699021
  18.45958    -18.718813    -18.718813
  18.63046    -18.736245    -18.736245
  18.80134    -18.751254    -18.751254
  18.97222    -18.763583    -18.763583
  19.14310    -18.774122    -18.774122
  19.31398    -18.781906    -18.781906
  19.48486    -18.787225    -18.787225
  19.65574    -18.789168    -18.789168
  19.82662    -18.787396    -18.787396
  19.99750    -18.782267    -18.782267
  20.16838    -18.774731    -18.774731
  20.33926    -18.764573    -18.764573
  20.51014    -18.752975    -18.752975
  20.68102    -18.740163    -18.740163
  20.85190    -18.740278    -18.740278
  21.02278    -18.777754    -18.777754
  21.19366    -18.821741    -18.821741
  21.36454    -18.867025    -18.867025
  21.53542    -18.911568    -18.911568
  21.70630    -18.956196    -18.956196
  21.87718    -18.999427    -18.999427
  22.04806    -19.041089    -19.041089
  22.21894    -19.080272    -19.080272
  22.38982    -19.117721    -19.117721
  22.56070    -19.152566    -19.152566
  22.73158    -19.184548    -19.184548
  22.90246    -19.213377    -19.213377
  23.07334    -19.240144    -19.240144
  23.24422    -19.262566    -19.262566
  23.41510    -19.280973    -19.280973
  23.58598    -19.295727    -19.295727
  23.75686    -19.306485    -19.306485
  23.92774    -19.312923    -19.312923
  24.09862    -19.314991    -19.314991
  24.09862    -19.314991    -19.314991
  24.23815    -19.313613    -19.313613
  24.37767    -19.309480    -19.309480
  24.51719    -19.301891    -19.301891
  24.65672    -19.292334    -19.292334
  24.79624    -19.280113    -19.280113
  24.93576    -19.264897    -19.264897
  25.07528    -19.246755    -19.246755
  25.21481    -19.226977    -19.226977
  25.35433    -19.204053    -19.204053
  25.49385    -19.179685    -19.179685
  25.63338    -19.152450    -19.152450
  25.77290    -19.124428    -19.124428
  25.91242    -19.094173    -19.094173
  26.05195    -19.062263    -19.062263
  26.19147    -19.028789    -19.028789
  26.33099    -18.994223    -18.994223
  26.47051    -18.958820    -18.958820
  26.61004    -18.924165    -18.924164
  26.74956    -18.892341    -18.892341
  26.88908    -18.892341    -18.892341
  27.02861    -18.924165    -18.924165
  27.16813    -18.958820    -18.958820
  27.30765    -18.994223    -18.994223
  27.44718    -19.028789    -19.028789
  27.58670    -19.062263    -19.062263
  27.72622    -19.094173    -19.094173
  27.86575    -19.124428    -19.124428
  28.00527    -19.152450    -19.152450
  28.14479    -19.179685    -19.179685
  28.28431    -19.204053    -19.204053
  28.42384    -19.226977    -19.226977
  28.56336    -19.246755    -19.246755
  28.70288    -19.264897    -19.264897
  28.84241    -19.280113    -19.280113
  28.98193    -19.292334    -19.292334
  29.12145    -19.301891    -19.301891
  29.26098    -19.309480    -19.309480
  29.40050    -19.313613    -19.313613
  29.54002    -19.314991    -19.314991
 
# Band-Index    2
  29.54002    -18.354986    -18.354986
  29.40050    -18.356746    -18.356746
  29.26098    -18.362397    -18.362397
  29.12145    -18.372002    -18.372002
  28.98193    -18.384111    -18.384111
  28.84241    -18.399478    -18.399477
  28.70288    -18.417958    -18.417958
  28.56336    -18.439912    -18.439912
  28.42384    -18.464498    -18.464498
  28.28431    -18.491267    -18.491267
  28.14479    -18.519613    -18.519613
  28.00527    -18.550782    -18.550782
  27.86575    -18.583758    -18.583758
  27.72622    -18.618266    -18.618266
  27.58670    -18.654035    -18.654035
  27.44718    -18.690759    -18.690759
  27.30765    -18.727425    -18.727425
  27.16813    -18.764994    -18.764994
  27.02861    -18.801957    -18.801957
  26.88908    -18.834524    -18.834524
  26.74956    -18.834524    -18.834524
  26.61004    -18.801957    -18.801957
  26.47051    -18.764994    -18.764994
  26.33099    -18.727425    -18.727425
  26.19147    -18.690759    -18.690759
  26.05195    -18.654035    -18.654035
  25.91242    -18.618266    -18.618266
  25.77290    -18.583758    -18.583758
  25.63338    -18.550782    -18.550782
  25.49385    -18.519613    -18.519613
  25.35433    -18.491267    -18.491267
  25.21481    -18.464498    -18.464498
  25.07528    -18.439912    -18.439912
  24.93576    -18.417958    -18.417958
  24.79624    -18.399478    -18.399477
  24.65672    -18.384111    -18.384111
  24.51719    -18.372002    -18.372002
  24.37767    -18.362397    -18.362397
  24.23815    -18.356746    -18.356746
  24.09862    -18.354986    -18.354986
  24.09862    -18.354986    -18.354986
  23.92774    -18.357098    -18.357099
  23.75686    -18.362433    -18.362433
  23.58598    -18.370731    -18.370731
  23.41510    -18.382133    -18.382133
  23.24422    -18.396429    -18.396429
  23.07334    -18.413665    -18.413665
  22.90246    -18.433579    -18.433579
  22.73158    -18.454930    -18.454930
  22.56070    -18.478419    -18.478419
  22.38982    -18.501975    -18.501975
  22.21894    -18.526705    -18.526705
  22.04806    -18.552623    -18.552623
  21.87718    -18.578542    -18.578542
  21.70630    -18.603957    -18.603957
  21.53542    -18.628945    -18.628945
  21.36454    -18.652875    -18.652875
  21.19366    -18.675689    -18.675689
  21.02278    -18.695688    -18.695688
  20.85190    -18.707541    -18.707541
  20.68102    -18.680480    -18.680480
  20.51014    -18.639282    -18.639282
  20.33926    -18.598215    -18.598215
  20.16838    -18.559770    -18.559770
  19.99750    -18.522500    -18.522500
  19.82662    -18.487745    -18.487745
  19.65574    -18.456373    -18.456373
  19.48486    -18.426982    -18.426982
  19.31398    -18.401255    -18.401255
  19.14310    -18.378795    -18.378795
  18.97222    -18.358977    -18.358977
  18.80134    -18.343718    -18.343718
  18.63046    -18.331130    -18.331130
  18.45958    -18.321633    -18.321633
  18.28870    -18.315052    -18.315052
  18.11782    -18.311177    -18.311177
  17.94694    -18.309752    -18.309752
  17.77606    -18.310501    -18.310501
  17.60518    -18.312622    -18.312622
  17.43430    -18.316837    -18.316837
  17.43430    -18.316837    -18.316837
  17.22893    -18.314345    -18.314345
  17.02355    -18.313263    -18.313263
  16.81818    -18.313467    -18.313467
  16.61281    -18.314113    -18.314113
  16.40744    -18.316316    -18.316316
  16.20207    -18.319107    -18.319107
  15.99669    -18.322120    -18.322120
  15.79132    -18.325723    -18.325723
  15.58595    -18.328900    -18.328900
  15.38058    -18.331951    -18.331951
  15.17520    -18.334860    -18.334860
  14.96983    -18.338214    -18.338214
  14.76446    -18.340857    -18.340857
  14.55909    -18.343505    -18.343505
  14.35371    -18.345400    -18.345400
  14.14834    -18.346635    -18.346635
  13.94297    -18.347432    -18.347432
  13.73760    -18.347886    -18.347886
  13.53222    -18.347624    -18.347624
  13.32685    -18.346787    -18.346787
  13.12148    -18.345400    -18.345400
  12.91611    -18.343157    -18.343157
  12.71074    -18.341135    -18.341135
  12.50536    -18.338256    -18.338256
  12.29999    -18.335172    -18.335172
  12.09462    -18.332525    -18.332525
  11.88925    -18.328900    -18.328900
  11.68387    -18.324996    -18.324995
  11.47850    -18.321524    -18.321524
  11.27313    -18.317395    -18.317395
  11.06776    -18.313905    -18.313905
  10.86238    -18.310283    -18.310283
  10.65701    -18.307039    -18.307039
  10.45164    -18.304113    -18.304113
  10.24627    -18.301438    -18.301438
  10.04089    -18.299789    -18.299789
   9.83552    -18.298120    -18.298120
   9.63015    -18.296636    -18.296636
   9.42478    -18.296307    -18.296307
   9.42478    -18.296307    -18.296307
   9.34422    -18.296453    -18.296453
   9.26367    -18.296892    -18.296892
   9.18312    -18.297619    -18.297619
   9.10256    -18.298631    -18.298631
   9.02201    -18.299919    -18.299919
   8.94146    -18.301476    -18.301476
   8.86090    -18.303291    -18.303291
   8.78035    -18.305683    -18.305683
   8.69980    -18.307986    -18.307986
   8.61924    -18.310504    -18.310504
   8.53869    -18.313220    -18.313220
   8.45813    -18.316116    -18.316116
   8.37758    -18.319172    -18.319172
   8.29703    -18.322366    -18.322366
   8.21647    -18.325678    -18.325678
   8.13592    -18.329085    -18.329085
   8.05537    -18.333140    -18.333140
   7.97481    -18.336684    -18.336684
   7.89426    -18.340253    -18.340253
   7.81370    -18.344049    -18.344049
   7.73315    -18.347612    -18.347612
   7.65260    -18.351128    -18.351128
   7.57204    -18.354571    -18.354571
   7.49149    -18.357913    -18.357913
   7.41094    -18.361371    -18.361371
   7.33038    -18.364382    -18.364382
   7.24983    -18.367134    -18.367134
   7.16928    -18.368876    -18.368876
   7.08872    -18.369606    -18.369606
   7.00817    -18.368110    -18.368110
   6.92761    -18.365925    -18.365925
   6.84706    -18.363810    -18.363810
   6.76651    -18.361878    -18.361878
   6.68595    -18.360191    -18.360191
   6.60540    -18.358486    -18.358486
   6.52485    -18.357372    -18.357372
   6.44429    -18.356435    -18.356435
   6.36374    -18.355114    -18.355114
   6.28319    -18.354954    -18.354954
   6.28319    -18.354954    -18.354954
   6.12208    -18.356449    -18.356449
   5.96097    -18.358544    -18.358544
   5.79986    -18.362044    -18.362044
   5.63876    -18.366396    -18.366396
   5.47765    -18.371777    -18.371777
   5.31654    -18.377795    -18.377795
   5.15543    -18.384925    -18.384925
   4.99433    -18.392353    -18.392353
   4.83322    -18.400217    -18.400217
   4.67211    -18.408198    -18.408198
   4.51100    -18.416088    -18.416088
   4.34990    -18.423594    -18.423594
   4.18879    -18.431656    -18.431656
   4.02768    -18.437572    -18.437572
   3.86658    -18.443246    -18.443246
   3.70547    -18.448205    -18.448205
   3.54436    -18.451967    -18.451967
   3.38325    -18.454442    -18.454442
   3.22215    -18.455931    -18.455931
   3.06104    -18.455926    -18.455926
   2.89993    -18.454429    -18.454429
   2.73882    -18.451944    -18.451944
   2.57772    -18.448175    -18.448175
   2.41661    -18.443206    -18.443206
   2.25550    -18.437527    -18.437527
   2.09440    -18.431605    -18.431605
   1.93329    -18.423539    -18.423539
   1.77218    -18.416031    -18.416031
   1.61107    -18.408143    -18.408143
   1.44997    -18.400169    -18.400169
   1.28886    -18.392312    -18.392312
   1.12775    -18.384899    -18.384899
   0.96664    -18.377784    -18.377784
   0.80554    -18.371777    -18.371777
   0.64443    -18.366409    -18.366409
   0.48332    -18.362068    -18.362068
   0.32221    -18.358576    -18.358576
   0.16111    -18.356484    -18.356484
   0.00000    -18.354986    -18.354986
 
# Band-Index    3
   0.00000     -7.139429     -7.139429
   0.16111     -7.134937     -7.134937
   0.32221     -7.121236     -7.121236
   0.48332     -7.098553     -7.098553
   0.64443     -7.067327     -7.067327
   0.80554     -7.028094     -7.028094
   0.96664     -6.981344     -6.981344
   1.12775     -6.928492     -6.928492
   1.28886     -6.870337     -6.870337
   1.44997     -6.807519     -6.807519
   1.61107     -6.741697     -6.741697
   1.77218     -6.674364     -6.674364
   1.93329     -6.607008     -6.607008
   2.09440     -6.542811     -6.542811
   2.25550     -6.481163     -6.481163
   2.41661     -6.425992     -6.425992
   2.57772     -6.379090     -6.379090
   2.73882     -6.342081     -6.342081
   2.89993     -6.316633     -6.316633
   3.06104     -6.304393     -6.304393
   3.22215     -6.304964     -6.304964
   3.38325     -6.318155     -6.318155
   3.54436     -6.344041     -6.344041
   3.70547     -6.380978     -6.380978
   3.86658     -6.427511     -6.427511
   4.02768     -6.482299     -6.482299
   4.18879     -6.543697     -6.543696
   4.34990     -6.607816     -6.607816
   4.51100     -6.675197     -6.675197
   4.67211     -6.742592     -6.742592
   4.83322     -6.808471     -6.808471
   4.99433     -6.871324     -6.871324
   5.15543     -6.929489     -6.929489
   5.31654     -6.982321     -6.982321
   5.47765     -7.029029     -7.029029
   5.63876     -7.068213     -7.068213
   5.79986     -7.099393     -7.099393
   5.96097     -7.122036     -7.122036
   6.12208     -7.135711     -7.135711
   6.28319     -7.140195     -7.140195
   6.28319     -7.140195     -7.140195
   6.36374     -7.139040     -7.139040
   6.44429     -7.135704     -7.135704
   6.52485     -7.130019     -7.130019
   6.60540     -7.122007     -7.122007
   6.68595     -7.111768     -7.111768
   6.76651     -7.099331     -7.099331
   6.84706     -7.084756     -7.084756
   6.92761     -7.068107     -7.068107
   7.00817     -7.049453     -7.049453
   7.08872     -7.028874     -7.028874
   7.16928     -7.006258     -7.006258
   7.24983     -6.982118     -6.982118
   7.33038     -6.956351     -6.956351
   7.41094     -6.929245     -6.929245
   7.49149     -6.900592     -6.900592
   7.57204     -6.871046     -6.871046
   7.65260     -6.840071     -6.840071
   7.73315     -6.808164     -6.808164
   7.81370     -6.775493     -6.775493
   7.89426     -6.742236     -6.742236
   7.97481     -6.708589     -6.708589
   8.05537     -6.674748     -6.674748
   8.13592     -6.640734     -6.640734
   8.21647     -6.607160     -6.607160
   8.29703     -6.574050     -6.574050
   8.37758     -6.542631     -6.542631
   8.45813     -6.510748     -6.510748
   8.53869     -6.480557     -6.480557
   8.61924     -6.451832     -6.451832
   8.69980     -6.424833     -6.424833
   8.78035     -6.400005     -6.400005
   8.86090     -6.377245     -6.377245
   8.94146     -6.356963     -6.356963
   9.02201     -6.339434     -6.339434
   9.10256     -6.324739     -6.324739
   9.18312     -6.313117     -6.313117
   9.26367     -6.304708     -6.304708
   9.34422     -6.300041     -6.300041
   9.42478     -6.298394     -6.298394
   9.42478     -6.298394     -6.298394
   9.63015     -6.261883     -6.261883
   9.83552     -6.206707     -6.206707
  10.04089     -6.132836     -6.132836
  10.24627     -6.041429     -6.041429
  10.45164     -5.934170     -5.934170
  10.65701     -5.898154     -5.898154
  10.86238     -6.011061     -6.011061
  11.06776     -6.124288     -6.124288
  11.27313     -6.235268     -6.235268
  11.47850     -6.342677     -6.342677
  11.68387     -6.444152     -6.444152
  11.88925     -6.539676     -6.539676
  12.09462     -6.627637     -6.627637
  12.29999     -6.707199     -6.707199
  12.50536     -6.777728     -6.777728
  12.71074     -6.838506     -6.838506
  12.91611     -6.888928     -6.888928
  13.12148     -6.928822     -6.928822
  13.32685     -6.957382     -6.957382
  13.53222     -6.974653     -6.974653
  13.73760     -6.980485     -6.980485
  13.94297     -6.974873     -6.974873
  14.14834     -6.957472     -6.957472
  14.35371     -6.928822     -6.928822
  14.55909     -6.889098     -6.889098
  14.76446     -6.838558     -6.838558
  14.96983     -6.777876     -6.777876
  15.17520     -6.707139     -6.707139
