 #energy          xx(cm^-1)       yy(cm^-1)       zz(cm^-1)       xy(cm^-1)       yz(cm^-1)       zx(cm^-1)
  0.00000000E+00  0.00000000E+00  0.00000000E+00  0.00000000E+00  0.00000000E+00  0.00000000E+00  0.00000000E+00
  0.39500000E-01  0.39473929E+01  0.39473929E+01  0.39473929E+01  0.00000000E+00  0.00000000E+00  0.00000000E+00
  0.79000000E-01  0.15786500E+02  0.15786500E+02  0.15786500E+02  0.00000000E+00  0.00000000E+00  0.00000000E+00
  0.11840000E+00  0.35675444E+02  0.35675444E+02  0.35675444E+02  0.00000000E+00  0.00000000E+00  0.00000000E+00
  0.15790000E+00  0.63583151E+02  0.63583151E+02  0.63583151E+02  0.00000000E+00  0.00000000E+00  0.00000000E+00
  0.19740000E+00  0.99796364E+02  0.99796364E+02  0.99796364E+02  0.00000000E+00  0.00000000E+00  0.00000000E+00
  0.23690000E+00  0.14487735E+03  0.14487735E+03  0.14487735E+03  0.00000000E+00  0.00000000E+00  0.00000000E+00
  0.27640000E+00  0.19826350E+03  0.19826350E+03  0.19826350E+03  0.00000000E+00  0.00000000E+00  0.00000000E+00
  0.31590000E+00  0.26096107E+03  0.26096107E+03  0.26096107E+03  0.00000000E+00  0.00000000E+00  0.00000000E+00
  0.35530000E+00  0.33321501E+03  0.33321501E+03  0.33321501E+03  0.00000000E+00  0.00000000E+00  0.00000000E+00
  0.39480000E+00  0.41552724E+03  0.41552724E+03  0.41552724E+03  0.00000000E+00  0.00000000E+00  0.00000000E+00
  0.43430000E+00  0.50813827E+03  0.50813827E+03  0.50813827E+03  0.00000000E+00  0.00000000E+00  0.00000000E+00
  0.47380000E+00  0.61290906E+03  0.61290906E+03  0.61290906E+03  0.00000000E+00  0.00000000E+00  0.00000000E+00
  0.51330000E+00  0.72882408E+03  0.72882408E+03  0.72882408E+03  0.00000000E+00  0.00000000E+00  0.00000000E+00
  0.55280000E+00  0.85798029E+03  0.85798029E+03  0.85798029E+03  0.00000000E+00  0.00000000E+00  0.00000000E+00
  0.59220000E+00  0.10018095E+04  0.10018095E+04  0.10018095E+04  0.00000000E+00  0.00000000E+00  0.00000000E+00
  0.63170000E+00  0.11593692E+04  0.11593692E+04  0.11593692E+04  0.00000000E+00  0.00000000E+00  0.00000000E+00
  0.67120000E+00  0.13341971E+04  0.13341971E+04  0.13341971E+04  0.00000000E+00  0.00000000E+00  0.00000000E+00
  0.71070000E+00  0.15249071E+04  0.15249071E+04  0.15249071E+04  0.00000000E+00  0.00000000E+00  0.00000000E+00
  0.75020000E+00  0.17320181E+04  0.17320181E+04  0.17320181E+04  0.00000000E+00  0.00000000E+00  0.00000000E+00
  0.78970000E+00  0.19560032E+04  0.19560032E+04  0.19560032E+04  0.00000000E+00  0.00000000E+00  0.00000000E+00
  0.82910000E+00  0.21943505E+04  0.21943505E+04  0.21943505E+04  0.00000000E+00  0.00000000E+00  0.00000000E+00
  0.86860000E+00  0.24489388E+04  0.24489388E+04  0.24489388E+04  0.00000000E+00  0.00000000E+00  0.00000000E+00
  0.90810000E+00  0.27210693E+04  0.27210693E+04  0.27210693E+04  0.00000000E+00  0.00000000E+00  0.00000000E+00
  0.94760000E+00  0.30154173E+04  0.30154173E+04  0.30154173E+04  0.00000000E+00  0.00000000E+00  0.00000000E+00
  0.98710000E+00  0.33434558E+04  0.33434558E+04  0.33434558E+04  0.00000000E+00  0.00000000E+00  0.00000000E+00
  0.10265000E+01  0.37258318E+04  0.37258318E+04  0.37258318E+04  0.00000000E+00  0.00000000E+00  0.00000000E+00
  0.10660000E+01  0.41931428E+04  0.41931428E+04  0.41931428E+04  0.00000000E+00  0.00000000E+00  0.00000000E+00
  0.11055000E+01  0.48004257E+04  0.48004257E+04  0.48004257E+04  0.00000000E+00  0.00000000E+00  0.00000000E+00
  0.11450000E+01  0.56277115E+04  0.56277115E+04  0.56277115E+04  0.00000000E+00  0.00000000E+00  0.00000000E+00
  0.11845000E+01  0.67967421E+04  0.67967421E+04  0.67967421E+04  0.00000000E+00  0.00000000E+00  0.00000000E+00
  0.12240000E+01  0.84639333E+04  0.84639333E+04  0.84639333E+04  0.00000000E+00  0.00000000E+00  0.00000000E+00
  0.12634000E+01  0.10799977E+05  0.10799977E+05  0.10799977E+05  0.00000000E+00  0.00000000E+00  0.00000000E+00
  0.13029000E+01  0.13934874E+05  0.13934874E+05  0.13934874E+05  0.00000000E+00  0.00000000E+00  0.00000000E+00
  0.13424000E+01  0.17902590E+05  0.17902590E+05  0.17902590E+05  0.00000000E+00  0.00000000E+00  0.00000000E+00
  0.13819000E+01  0.22569367E+05  0.22569367E+05  0.22569367E+05  0.00000000E+00  0.00000000E+00  0.00000000E+00
  0.14214000E+01  0.27624948E+05  0.27624948E+05  0.27624948E+05  0.00000000E+00  0.00000000E+00  0.00000000E+00
  0.14609000E+01  0.32643277E+05  0.32643277E+05  0.32643277E+05  0.00000000E+00  0.00000000E+00  0.00000000E+00
  0.15003000E+01  0.37186995E+05  0.37186995E+05  0.37186995E+05  0.00000000E+00  0.00000000E+00  0.00000000E+00
  0.15398000E+01  0.41002624E+05  0.41002624E+05  0.41002624E+05  0.00000000E+00  0.00000000E+00  0.00000000E+00
  0.15793000E+01  0.44127789E+05  0.44127789E+05  0.44127789E+05  0.00000000E+00  0.00000000E+00  0.00000000E+00
  0.16188000E+01  0.46960296E+05  0.46960296E+05  0.46960296E+05  0.00000000E+00  0.00000000E+00  0.00000000E+00
  0.16583000E+01  0.50145655E+05  0.50145655E+05  0.50145655E+05  0.00000000E+00  0.00000000E+00  0.00000000E+00
  0.16977000E+01  0.54381271E+05  0.54381271E+05  0.54381271E+05  0.00000000E+00  0.00000000E+00  0.00000000E+00
  0.17372000E+01  0.60214736E+05  0.60214736E+05  0.60214736E+05  0.00000000E+00  0.00000000E+00  0.00000000E+00
  0.17767000E+01  0.67907940E+05  0.67907940E+05  0.67907940E+05  0.00000000E+00  0.00000000E+00  0.00000000E+00
  0.18162000E+01  0.77434140E+05  0.77434140E+05  0.77434140E+05  0.00000000E+00  0.00000000E+00  0.00000000E+00
  0.18557000E+01  0.88575184E+05  0.88575184E+05  0.88575184E+05  0.00000000E+00  0.00000000E+00  0.00000000E+00
  0.18952000E+01  0.10103737E+06  0.10103737E+06  0.10103737E+06  0.00000000E+00  0.00000000E+00  0.00000000E+00
  0.19346000E+01  0.11458105E+06  0.11458105E+06  0.11458105E+06  0.00000000E+00  0.00000000E+00  0.00000000E+00
  0.19741000E+01  0.12912433E+06  0.12912433E+06  0.12912433E+06  0.00000000E+00  0.00000000E+00  0.00000000E+00
  0.20136000E+01  0.14472938E+06  0.14472938E+06  0.14472938E+06  0.00000000E+00  0.00000000E+00  0.00000000E+00
  0.20531000E+01  0.16157855E+06  0.16157855E+06  0.16157855E+06  0.00000000E+00  0.00000000E+00  0.00000000E+00
  0.20926000E+01  0.17982789E+06  0.17982789E+06  0.17982789E+06  0.00000000E+00  0.00000000E+00  0.00000000E+00
  0.21321000E+01  0.19944082E+06  0.19944082E+06  0.19944082E+06  0.00000000E+00  0.00000000E+00  0.00000000E+00
  0.21715000E+01  0.21999024E+06  0.21999024E+06  0.21999024E+06  0.00000000E+00  0.00000000E+00  0.00000000E+00
  0.22110000E+01  0.24063958E+06  0.24063958E+06  0.24063958E+06  0.00000000E+00  0.00000000E+00  0.00000000E+00
  0.22505000E+01  0.26013719E+06  0.26013719E+06  0.26013719E+06  0.00000000E+00  0.00000000E+00  0.00000000E+00
  0.22900000E+01  0.27709195E+06  0.27709195E+06  0.27709195E+06  0.00000000E+00  0.00000000E+00  0.00000000E+00
  0.23295000E+01  0.29029063E+06  0.29029063E+06  0.29029063E+06  0.00000000E+00  0.00000000E+00  0.00000000E+00
  0.23690000E+01  0.29909981E+06  0.29909981E+06  0.29909981E+06  0.00000000E+00  0.00000000E+00  0.00000000E+00
  0.24084000E+01  0.30375964E+06  0.30375964E+06  0.30375964E+06  0.00000000E+00  0.00000000E+00  0.00000000E+00
  0.24479000E+01  0.30554135E+06  0.30554135E+06  0.30554135E+06  0.00000000E+00  0.00000000E+00  0.00000000E+00
  0.24874000E+01  0.30647484E+06  0.30647484E+06  0.30647484E+06  0.00000000E+00  0.00000000E+00  0.00000000E+00
  0.25269000E+01  0.30883688E+06  0.30883688E+06  0.30883688E+06  0.00000000E+00  0.00000000E+00  0.00000000E+00
  0.25664000E+01  0.31447441E+06  0.31447441E+06  0.31447441E+06  0.00000000E+00  0.00000000E+00  0.00000000E+00
  0.26058000E+01  0.32426632E+06  0.32426632E+06  0.32426632E+06  0.00000000E+00  0.00000000E+00  0.00000000E+00
  0.26453000E+01  0.33799807E+06  0.33799807E+06  0.33799807E+06  0.00000000E+00  0.00000000E+00  0.00000000E+00
  0.26848000E+01  0.35444144E+06  0.35444144E+06  0.35444144E+06  0.00000000E+00  0.00000000E+00  0.00000000E+00
  0.27243000E+01  0.37175740E+06  0.37175740E+06  0.37175740E+06  0.00000000E+00  0.00000000E+00  0.00000000E+00
  0.27638000E+01  0.38794826E+06  0.38794826E+06  0.38794826E+06  0.00000000E+00  0.00000000E+00  0.00000000E+00
  0.28033000E+01  0.40129875E+06  0.40129875E+06  0.40129875E+06  0.00000000E+00  0.00000000E+00  0.00000000E+00
  0.28427000E+01  0.41076293E+06  0.41076293E+06  0.41076293E+06  0.00000000E+00  0.00000000E+00  0.00000000E+00
  0.28822000E+01  0.41631468E+06  0.41631468E+06  0.41631468E+06  0.00000000E+00  0.00000000E+00  0.00000000E+00
  0.29217000E+01  0.41887080E+06  0.41887080E+06  0.41887080E+06  0.00000000E+00  0.00000000E+00  0.00000000E+00
  0.29612000E+01  0.42006055E+06  0.42006055E+06  0.42006055E+06  0.00000000E+00  0.00000000E+00  0.00000000E+00
  0.30007000E+01  0.42163653E+06  0.42163653E+06  0.42163653E+06  0.00000000E+00  0.00000000E+00  0.00000000E+00
  0.30402000E+01  0.42487509E+06  0.42487509E+06  0.42487509E+06  0.00000000E+00  0.00000000E+00  0.00000000E+00
  0.30796000E+01  0.43022151E+06  0.43022151E+06  0.43022151E+06  0.00000000E+00  0.00000000E+00  0.00000000E+00
  0.31191000E+01  0.43740658E+06  0.43740658E+06  0.43740658E+06  0.00000000E+00  0.00000000E+00  0.00000000E+00
  0.31586000E+01  0.44575482E+06  0.44575482E+06  0.44575482E+06  0.00000000E+00  0.00000000E+00  0.00000000E+00
  0.31981000E+01  0.45467256E+06  0.45467256E+06  0.45467256E+06  0.00000000E+00  0.00000000E+00  0.00000000E+00
  0.32376000E+01  0.46392083E+06  0.46392083E+06  0.46392083E+06  0.00000000E+00  0.00000000E+00  0.00000000E+00
  0.32770000E+01  0.47362963E+06  0.47362963E+06  0.47362963E+06  0.00000000E+00  0.00000000E+00  0.00000000E+00
  0.33165000E+01  0.48412025E+06  0.48412025E+06  0.48412025E+06  0.00000000E+00  0.00000000E+00  0.00000000E+00
  0.33560000E+01  0.49557123E+06  0.49557123E+06  0.49557123E+06  0.00000000E+00  0.00000000E+00  0.00000000E+00
  0.33955000E+01  0.50784314E+06  0.50784314E+06  0.50784314E+06  0.00000000E+00  0.00000000E+00  0.00000000E+00
  0.34350000E+01  0.52055523E+06  0.52055523E+06  0.52055523E+06  0.00000000E+00  0.00000000E+00  0.00000000E+00
  0.34745000E+01  0.53319233E+06  0.53319233E+06  0.53319233E+06  0.00000000E+00  0.00000000E+00  0.00000000E+00
  0.35139000E+01  0.54530958E+06  0.54530958E+06  0.54530958E+06  0.00000000E+00  0.00000000E+00  0.00000000E+00
  0.35534000E+01  0.55657104E+06  0.55657104E+06  0.55657104E+06  0.00000000E+00  0.00000000E+00  0.00000000E+00
  0.35929000E+01  0.56659284E+06  0.56659284E+06  0.56659284E+06  0.00000000E+00  0.00000000E+00  0.00000000E+00
  0.36324000E+01  0.57486982E+06  0.57486982E+06  0.57486982E+06  0.00000000E+00  0.00000000E+00  0.00000000E+00
  0.36719000E+01  0.58076244E+06  0.58076244E+06  0.58076244E+06  0.00000000E+00  0.00000000E+00  0.00000000E+00
  0.37114000E+01  0.58372122E+06  0.58372122E+06  0.58372122E+06  0.00000000E+00  0.00000000E+00  0.00000000E+00
  0.37508000E+01  0.58358696E+06  0.58358696E+06  0.58358696E+06  0.00000000E+00  0.00000000E+00  0.00000000E+00
  0.37903000E+01  0.58093078E+06  0.58093078E+06  0.58093078E+06  0.00000000E+00  0.00000000E+00  0.00000000E+00
  0.38298000E+01  0.57705948E+06  0.57705948E+06  0.57705948E+06  0.00000000E+00  0.00000000E+00  0.00000000E+00
  0.38693000E+01  0.57379724E+06  0.57379724E+06  0.57379724E+06  0.00000000E+00  0.00000000E+00  0.00000000E+00
  0.39088000E+01  0.57294605E+06  0.57294605E+06  0.57294605E+06  0.00000000E+00  0.00000000E+00  0.00000000E+00
  0.39483000E+01  0.57570076E+06  0.57570076E+06  0.57570076E+06  0.00000000E+00  0.00000000E+00  0.00000000E+00
  0.39877000E+01  0.58215698E+06  0.58215698E+06  0.58215698E+06  0.00000000E+00  0.00000000E+00  0.00000000E+00
  0.40272000E+01  0.59131757E+06  0.59131757E+06  0.59131757E+06  0.00000000E+00  0.00000000E+00  0.00000000E+00
  0.40667000E+01  0.60130567E+06  0.60130567E+06  0.60130567E+06  0.00000000E+00  0.00000000E+00  0.00000000E+00
  0.41062000E+01  0.60993067E+06  0.60993067E+06  0.60993067E+06  0.00000000E+00  0.00000000E+00  0.00000000E+00
  0.41457000E+01  0.61534314E+06  0.61534314E+06  0.61534314E+06  0.00000000E+00  0.00000000E+00  0.00000000E+00
  0.41851000E+01  0.61654520E+06  0.61654520E+06  0.61654520E+06  0.00000000E+00  0.00000000E+00  0.00000000E+00
  0.42246000E+01  0.61369628E+06  0.61369628E+06  0.61369628E+06  0.00000000E+00  0.00000000E+00  0.00000000E+00
  0.42641000E+01  0.60800355E+06  0.60800355E+06  0.60800355E+06  0.00000000E+00  0.00000000E+00  0.00000000E+00
  0.43036000E+01  0.60130153E+06  0.60130153E+06  0.60130153E+06  0.00000000E+00  0.00000000E+00  0.00000000E+00
  0.43431000E+01  0.59541740E+06  0.59541740E+06  0.59541740E+06  0.00000000E+00  0.00000000E+00  0.00000000E+00
  0.43826000E+01  0.59156586E+06  0.59156586E+06  0.59156586E+06  0.00000000E+00  0.00000000E+00  0.00000000E+00
  0.44220000E+01  0.59005115E+06  0.59005115E+06  0.59005115E+06  0.00000000E+00  0.00000000E+00  0.00000000E+00
  0.44615000E+01  0.59038837E+06  0.59038837E+06  0.59038837E+06  0.00000000E+00  0.00000000E+00  0.00000000E+00
  0.45010000E+01  0.59154499E+06  0.59154499E+06  0.59154499E+06  0.00000000E+00  0.00000000E+00  0.00000000E+00
  0.45405000E+01  0.59244137E+06  0.59244137E+06  0.59244137E+06  0.00000000E+00  0.00000000E+00  0.00000000E+00
  0.45800000E+01  0.59231505E+06  0.59231505E+06  0.59231505E+06  0.00000000E+00  0.00000000E+00  0.00000000E+00
  0.46195000E+01  0.59099159E+06  0.59099159E+06  0.59099159E+06  0.00000000E+00  0.00000000E+00  0.00000000E+00
  0.46589000E+01  0.58890220E+06  0.58890220E+06  0.58890220E+06  0.00000000E+00  0.00000000E+00  0.00000000E+00
  0.46984000E+01  0.58697733E+06  0.58697733E+06  0.58697733E+06  0.00000000E+00  0.00000000E+00  0.00000000E+00
  0.47379000E+01  0.58619352E+06  0.58619352E+06  0.58619352E+06  0.00000000E+00  0.00000000E+00  0.00000000E+00
  0.47774000E+01  0.58728391E+06  0.58728391E+06  0.58728391E+06  0.00000000E+00  0.00000000E+00  0.00000000E+00
  0.48169000E+01  0.59045440E+06  0.59045440E+06  0.59045440E+06  0.00000000E+00  0.00000000E+00  0.00000000E+00
  0.48563000E+01  0.59536295E+06  0.59536295E+06  0.59536295E+06  0.00000000E+00  0.00000000E+00  0.00000000E+00
  0.48958000E+01  0.60136131E+06  0.60136131E+06  0.60136131E+06  0.00000000E+00  0.00000000E+00  0.00000000E+00
  0.49353000E+01  0.60772258E+06  0.60772258E+06  0.60772258E+06  0.00000000E+00  0.00000000E+00  0.00000000E+00
  0.49748000E+01  0.61385054E+06  0.61385054E+06  0.61385054E+06  0.00000000E+00  0.00000000E+00  0.00000000E+00
  0.50143000E+01  0.61946232E+06  0.61946232E+06  0.61946232E+06  0.00000000E+00  0.00000000E+00  0.00000000E+00
  0.50538000E+01  0.62445854E+06  0.62445854E+06  0.62445854E+06  0.00000000E+00  0.00000000E+00  0.00000000E+00
  0.50932000E+01  0.62891424E+06  0.62891424E+06  0.62891424E+06  0.00000000E+00  0.00000000E+00  0.00000000E+00
  0.51327000E+01  0.63298624E+06  0.63298624E+06  0.63298624E+06  0.00000000E+00  0.00000000E+00  0.00000000E+00
  0.51722000E+01  0.63681517E+06  0.63681517E+06  0.63681517E+06  0.00000000E+00  0.00000000E+00  0.00000000E+00
  0.52117000E+01  0.64055030E+06  0.64055030E+06  0.64055030E+06  0.00000000E+00  0.00000000E+00  0.00000000E+00
  0.52512000E+01  0.64432167E+06  0.64432167E+06  0.64432167E+06  0.00000000E+00  0.00000000E+00  0.00000000E+00
  0.52907000E+01  0.64821395E+06  0.64821395E+06  0.64821395E+06  0.00000000E+00  0.00000000E+00  0.00000000E+00
  0.53301000E+01  0.65223871E+06  0.65223871E+06  0.65223871E+06  0.00000000E+00  0.00000000E+00  0.00000000E+00
  0.53696000E+01  0.65637886E+06  0.65637886E+06  0.65637886E+06  0.00000000E+00  0.00000000E+00  0.00000000E+00
  0.54091000E+01  0.66047820E+06  0.66047820E+06  0.66047820E+06  0.00000000E+00  0.00000000E+00  0.00000000E+00
  0.54486000E+01  0.66432031E+06  0.66432031E+06  0.66432031E+06  0.00000000E+00  0.00000000E+00  0.00000000E+00
  0.54881000E+01  0.66751671E+06  0.66751671E+06  0.66751671E+06  0.00000000E+00  0.00000000E+00  0.00000000E+00
  0.55276000E+01  0.66961732E+06  0.66961732E+06  0.66961732E+06  0.00000000E+00  0.00000000E+00  0.00000000E+00
  0.55670000E+01  0.67014651E+06  0.67014651E+06  0.67014651E+06  0.00000000E+00  0.00000000E+00  0.00000000E+00
  0.56065000E+01  0.66892027E+06  0.66892027E+06  0.66892027E+06  0.00000000E+00  0.00000000E+00  0.00000000E+00
  0.56460000E+01  0.66605846E+06  0.66605846E+06  0.66605846E+06  0.00000000E+00  0.00000000E+00  0.00000000E+00
  0.56855000E+01  0.66212571E+06  0.66212571E+06  0.66212571E+06  0.00000000E+00  0.00000000E+00  0.00000000E+00
  0.57250000E+01  0.65802560E+06  0.65802560E+06  0.65802560E+06  0.00000000E+00  0.00000000E+00  0.00000000E+00
  0.57644000E+01  0.65474625E+06  0.65474625E+06  0.65474625E+06  0.00000000E+00  0.00000000E+00  0.00000000E+00
  0.58039000E+01  0.65315827E+06  0.65315827E+06  0.65315827E+06  0.00000000E+00  0.00000000E+00  0.00000000E+00
  0.58434000E+01  0.65371538E+06  0.65371538E+06  0.65371538E+06  0.00000000E+00  0.00000000E+00  0.00000000E+00
  0.58829000E+01  0.65646742E+06  0.65646742E+06  0.65646742E+06  0.00000000E+00  0.00000000E+00  0.00000000E+00
  0.59224000E+01  0.66106864E+06  0.66106864E+06  0.66106864E+06  0.00000000E+00  0.00000000E+00  0.00000000E+00
  0.59619000E+01  0.66699235E+06  0.66699235E+06  0.66699235E+06  0.00000000E+00  0.00000000E+00  0.00000000E+00
  0.60013000E+01  0.67355202E+06  0.67355202E+06  0.67355202E+06  0.00000000E+00  0.00000000E+00  0.00000000E+00
  0.60408000E+01  0.68015646E+06  0.68015646E+06  0.68015646E+06  0.00000000E+00  0.00000000E+00  0.00000000E+00
  0.60803000E+01  0.68637001E+06  0.68637001E+06  0.68637001E+06  0.00000000E+00  0.00000000E+00  0.00000000E+00
  0.61198000E+01  0.69209757E+06  0.69209757E+06  0.69209757E+06  0.00000000E+00  0.00000000E+00  0.00000000E+00
  0.61593000E+01  0.69759685E+06  0.69759685E+06  0.69759685E+06  0.00000000E+00  0.00000000E+00  0.00000000E+00
  0.61988000E+01  0.70358734E+06  0.70358734E+06  0.70358734E+06  0.00000000E+00  0.00000000E+00  0.00000000E+00
  0.62382000E+01  0.71102348E+06  0.71102348E+06  0.71102348E+06  0.00000000E+00  0.00000000E+00  0.00000000E+00
  0.62777000E+01  0.72105645E+06  0.72105645E+06  0.72105645E+06  0.00000000E+00  0.00000000E+00  0.00000000E+00
  0.63172000E+01  0.73466706E+06  0.73466706E+06  0.73466706E+06  0.00000000E+00  0.00000000E+00  0.00000000E+00
  0.63567000E+01  0.75260524E+06  0.75260524E+06  0.75260524E+06  0.00000000E+00  0.00000000E+00  0.00000000E+00
  0.63962000E+01  0.77506958E+06  0.77506958E+06  0.77506958E+06  0.00000000E+00  0.00000000E+00  0.00000000E+00
  0.64356000E+01  0.80156855E+06  0.80156855E+06  0.80156855E+06  0.00000000E+00  0.00000000E+00  0.00000000E+00
  0.64751000E+01  0.83081366E+06  0.83081366E+06  0.83081366E+06  0.00000000E+00  0.00000000E+00  0.00000000E+00
  0.65146000E+01  0.86079976E+06  0.86079976E+06  0.86079976E+06  0.00000000E+00  0.00000000E+00  0.00000000E+00
  0.65541000E+01  0.88913808E+06  0.88913808E+06  0.88913808E+06  0.00000000E+00  0.00000000E+00  0.00000000E+00
  0.65936000E+01  0.91357727E+06  0.91357727E+06  0.91357727E+06  0.00000000E+00  0.00000000E+00  0.00000000E+00
  0.66331000E+01  0.93249876E+06  0.93249876E+06  0.93249876E+06  0.00000000E+00  0.00000000E+00  0.00000000E+00
  0.66725000E+01  0.94531984E+06  0.94531984E+06  0.94531984E+06  0.00000000E+00  0.00000000E+00  0.00000000E+00
  0.67120000E+01  0.95267424E+06  0.95267424E+06  0.95267424E+06  0.00000000E+00  0.00000000E+00  0.00000000E+00
  0.67515000E+01  0.95611038E+06  0.95611038E+06  0.95611038E+06  0.00000000E+00  0.00000000E+00  0.00000000E+00
  0.67910000E+01  0.95776660E+06  0.95776660E+06  0.95776660E+06  0.00000000E+00  0.00000000E+00  0.00000000E+00
  0.68305000E+01  0.95964570E+06  0.95964570E+06  0.95964570E+06  0.00000000E+00  0.00000000E+00  0.00000000E+00
  0.68700000E+01  0.96314651E+06  0.96314651E+06  0.96314651E+06  0.00000000E+00  0.00000000E+00  0.00000000E+00
  0.69094000E+01  0.96877554E+06  0.96877554E+06  0.96877554E+06  0.00000000E+00  0.00000000E+00  0.00000000E+00
