#  frequency dependent IMAGINARY DIELECTRIC FUNCTION (independent particle, no local field effects)
#     E(ev)      X         Y         Z        XY        YZ        ZX
#  --------------------------------------------------------------------------------------
    0.000000    0.000000    0.000000    0.000000    0.000000    0.000000    0.000000
    0.039483    0.006005    0.006005    0.006005   -0.000000   -0.000000   -0.000000
    0.078965    0.012030    0.012030    0.012030   -0.000000   -0.000000   -0.000000
    0.118448    0.018096    0.018096    0.018096   -0.000000   -0.000000   -0.000000
    0.157930    0.024224    0.024224    0.024224   -0.000000   -0.000000   -0.000000
    0.197413    0.030435    0.030435    0.030435   -0.000000   -0.000000   -0.000000
    0.236895    0.036751    0.036751    0.036751   -0.000000   -0.000000   -0.000000
    0.276378    0.043198    0.043198    0.043198   -0.000000   -0.000000   -0.000000
    0.315860    0.049800    0.049800    0.049800   -0.000000   -0.000000   -0.000000
    0.355343    0.056585    0.056585    0.056585   -0.000000   -0.000000   -0.000000
    0.394825    0.063582    0.063582    0.063582   -0.000000   -0.000000   -0.000000
    0.434308    0.070826    0.070826    0.070826   -0.000000   -0.000000   -0.000000
    0.473790    0.078353    0.078353    0.078353   -0.000000   -0.000000   -0.000000
    0.513273    0.086204    0.086204    0.086204   -0.000000   -0.000000   -0.000000
    0.552755    0.094423    0.094423    0.094423   -0.000000   -0.000000   -0.000000
    0.592238    0.103052    0.103052    0.103052   -0.000000   -0.000000   -0.000000
    0.631720    0.112129    0.112129    0.112129   -0.000000   -0.000000   -0.000000
    0.671203    0.121674    0.121674    0.121674   -0.000000   -0.000000   -0.000000
    0.710685    0.131679    0.131679    0.131679   -0.000000   -0.000000   -0.000000
    0.750168    0.142101    0.142101    0.142101   -0.000000   -0.000000   -0.000000
    0.789650    0.152866    0.152866    0.152866   -0.000000   -0.000000   -0.000000
    0.829133    0.163899    0.163899    0.163899   -0.000000   -0.000000   -0.000000
    0.868615    0.175187    0.175187    0.175187   -0.000000   -0.000000   -0.000000
    0.908098    0.186857    0.186857    0.186857   -0.000000   -0.000000   -0.000000
    0.947580    0.199268    0.199268    0.199268   -0.000000   -0.000000   -0.000000
    0.987063    0.213099    0.213099    0.213099   -0.000000   -0.000000   -0.000000
    1.026545    0.229466    0.229466    0.229466   -0.000000   -0.000000   -0.000000
    1.066028    0.250117    0.250117    0.250117   -0.000000   -0.000000   -0.000000
    1.105510    0.277778    0.277778    0.277778   -0.000000   -0.000000   -0.000000
    1.144993    0.316589    0.316589    0.316589   -0.000000   -0.000000   -0.000000
    1.184475    0.372395    0.372395    0.372395   -0.000000   -0.000000   -0.000000
    1.223958    0.452423    0.452423    0.452423   -0.000000   -0.000000   -0.000000
    1.263440    0.563865    0.563865    0.563865   -0.000000   -0.000000   -0.000000
    1.302923    0.711245    0.711245    0.711245   -0.000000   -0.000000   -0.000000
    1.342405    0.893202    0.893202    0.893202   -0.000000   -0.000000   -0.000000
    1.381888    1.100162    1.100162    1.100162   -0.000001   -0.000001   -0.000001
    1.421370    1.314629    1.314629    1.314629   -0.000001   -0.000001   -0.000001
    1.460853    1.515157    1.515157    1.515157   -0.000001   -0.000001   -0.000001
    1.500335    1.683303    1.683303    1.683303   -0.000002   -0.000002   -0.000002
    1.539818    1.811058    1.811058    1.811058   -0.000002   -0.000002   -0.000002
    1.579300    1.905326    1.905326    1.905326   -0.000003   -0.000003   -0.000003
    1.618783    1.987125    1.987125    1.987125   -0.000003   -0.000003   -0.000003
    1.658265    2.085415    2.085415    2.085415   -0.000003   -0.000003   -0.000003
    1.697748    2.228188    2.228188    2.228188   -0.000003   -0.000003   -0.000003
    1.737230    2.434530    2.434530    2.434530   -0.000004   -0.000004   -0.000004
    1.776713    2.710619    2.710619    2.710619   -0.000004   -0.000004   -0.000004
    1.816195    3.050549    3.050549    3.050549   -0.000005   -0.000005   -0.000005
    1.855678    3.440779    3.440779    3.440779   -0.000006   -0.000006   -0.000006
    1.895160    3.865972    3.865972    3.865972   -0.000007   -0.000007   -0.000007
    1.934643    4.314087    4.314087    4.314087   -0.000008   -0.000008   -0.000008
    1.974125    4.779293    4.779293    4.779293   -0.000009   -0.000009   -0.000009
    2.013608    5.261834    5.261834    5.261834   -0.000011   -0.000011   -0.000011
    2.053090    5.764590    5.764590    5.764590   -0.000013   -0.000013   -0.000013
    2.092573    6.287039    6.287039    6.287039   -0.000016   -0.000016   -0.000016
    2.132055    6.818488    6.818488    6.818488   -0.000018   -0.000018   -0.000018
    2.171538    7.333705    7.333705    7.333705   -0.000019   -0.000019   -0.000019
    2.211020    7.794108    7.794108    7.794108   -0.000019   -0.000019   -0.000019
    2.250503    8.155643    8.155643    8.155643   -0.000018   -0.000018   -0.000018
    2.289985    8.381702    8.381702    8.381702   -0.000015   -0.000015   -0.000015
    2.329468    8.456313    8.456313    8.456313   -0.000012   -0.000012   -0.000012
    2.368950    8.392416    8.392416    8.392416   -0.000008   -0.000008   -0.000008
    2.408433    8.231457    8.231457    8.231457   -0.000006   -0.000006   -0.000006
    2.447915    8.034145    8.034145    8.034145   -0.000006   -0.000006   -0.000006
    2.487398    7.865308    7.865308    7.865308   -0.000008   -0.000008   -0.000008
    2.526880    7.777758    7.777758    7.777758   -0.000011   -0.000011   -0.000011
    2.566363    7.799756    7.799756    7.799756   -0.000015   -0.000015   -0.000015
    2.605845    7.929196    7.929196    7.929196   -0.000019   -0.000019   -0.000019
    2.645328    8.135646    8.135646    8.135646   -0.000021   -0.000021   -0.000021
    2.684810    8.369157    8.369157    8.369157   -0.000022   -0.000022   -0.000022
    2.724293    8.573794    8.573794    8.573794   -0.000022   -0.000022   -0.000022
    2.763775    8.702320    8.702320    8.702320   -0.000021   -0.000021   -0.000021
    2.803258    8.728476    8.728476    8.728476   -0.000019   -0.000019   -0.000019
    2.842740    8.653204    8.653204    8.653204   -0.000018   -0.000018   -0.000018
    2.882223    8.502721    8.502721    8.502721   -0.000017   -0.000017   -0.000017
    2.921706    8.318894    8.318894    8.318894   -0.000016   -0.000016   -0.000016
    2.961188    8.145188    8.145188    8.145188   -0.000016   -0.000016   -0.000016
    3.000671    8.013517    8.013517    8.013517   -0.000017   -0.000017   -0.000017
    3.040153    7.936644    7.936644    7.936644   -0.000017   -0.000017   -0.000017
    3.079636    7.908782    7.908782    7.908782   -0.000018   -0.000018   -0.000018
    3.119118    7.912991    7.912991    7.912991   -0.000019   -0.000019   -0.000019
    3.158601    7.931274    7.931274    7.931274   -0.000021   -0.000021   -0.000021
    3.198083    7.952451    7.952451    7.952451   -0.000024   -0.000024   -0.000024
    3.237566    7.974581    7.974581    7.974581   -0.000027   -0.000027   -0.000027
    3.277048    8.001671    8.001671    8.001671   -0.000029   -0.000029   -0.000029
    3.316531    8.037648    8.037648    8.037648   -0.000029   -0.000029   -0.000029
    3.356013    8.081467    8.081467    8.081467   -0.000028   -0.000028   -0.000028
    3.395496    8.126144    8.126144    8.126144   -0.000025   -0.000025   -0.000025
    3.434978    8.161565    8.161565    8.161565   -0.000021   -0.000021   -0.000021
    3.474461    8.178529    8.178529    8.178529   -0.000016   -0.000016   -0.000016
    3.513943    8.170955    8.170955    8.170955   -0.000012   -0.000012   -0.000012
    3.553426    8.135105    8.135105    8.135105   -0.000008   -0.000008   -0.000008
    3.592908    8.067419    8.067419    8.067419   -0.000005   -0.000005   -0.000005
    3.632391    7.963674    7.963674    7.963674   -0.000003   -0.000003   -0.000003
    3.671873    7.821001    7.821001    7.821001   -0.000002   -0.000002   -0.000002
    3.711356    7.641952    7.641952    7.641952   -0.000002   -0.000002   -0.000002
    3.750838    7.437770    7.437770    7.437770   -0.000002   -0.000002   -0.000002
    3.790321    7.228295    7.228295    7.228295   -0.000003   -0.000003   -0.000003
    3.829803    7.037914    7.037914    7.037914   -0.000005   -0.000005   -0.000005
    3.869286    6.888780    6.888780    6.888780   -0.000007   -0.000007   -0.000007
    3.908768    6.793893    6.793893    6.793893   -0.000009   -0.000009   -0.000009
    3.948251    6.752363    6.752363    6.752363   -0.000011   -0.000011   -0.000011
    3.987733    6.748570    6.748570    6.748570   -0.000012   -0.000012   -0.000012
    4.027216    6.755915    6.755915    6.755915   -0.000011   -0.000011   -0.000011
    4.066698    6.744461    6.744461    6.744461   -0.000010   -0.000010   -0.000010
    4.106181    6.690271    6.690271    6.690271   -0.000008   -0.000008   -0.000008
    4.145663    6.582937    6.582937    6.582937   -0.000006   -0.000006   -0.000006
    4.185146    6.428368    6.428368    6.428368   -0.000004   -0.000004   -0.000004
    4.224628    6.245799    6.245799    6.245799   -0.000003   -0.000003   -0.000003
    4.264111    6.060403    6.060403    6.060403   -0.000002   -0.000002   -0.000002
    4.303593    5.894785    5.894785    5.894785   -0.000002   -0.000002   -0.000002
    4.343076    5.762674    5.762674    5.762674   -0.000003   -0.000003   -0.000003
    4.382558    5.666471    5.666471    5.666471   -0.000004   -0.000004   -0.000004
    4.422041    5.598764    5.598764    5.598764   -0.000005   -0.000005   -0.000005
    4.461523    5.546536    5.546536    5.546536   -0.000005   -0.000005   -0.000005
    4.501006    5.496307    5.496307    5.496307   -0.000005   -0.000005   -0.000005
    4.540488    5.438618    5.438618    5.438618   -0.000005   -0.000005   -0.000005
    4.579971    5.370643    5.370643    5.370643   -0.000005   -0.000005   -0.000005
    4.619453    5.296404    5.296404    5.296404   -0.000005   -0.000005   -0.000005
    4.658936    5.224630    5.224630    5.224630   -0.000006   -0.000006   -0.000006
    4.698418    5.165181    5.165181    5.165181   -0.000007   -0.000007   -0.000007
    4.737901    5.125300    5.125300    5.125300   -0.000009   -0.000009   -0.000009
    4.777383    5.107095    5.107095    5.107095   -0.000010   -0.000010   -0.000010
    4.816866    5.107084    5.107084    5.107084   -0.000011   -0.000011   -0.000011
    4.856348    5.117888    5.117888    5.117888   -0.000012   -0.000012   -0.000012
    4.895831    5.131124    5.131124    5.131124   -0.000012   -0.000012   -0.000012
    4.935313    5.140087    5.140087    5.140087   -0.000012   -0.000012   -0.000012
    4.974796    5.141223    5.141223    5.141223   -0.000011   -0.000011   -0.000011
    5.014278    5.134000    5.134000    5.134000   -0.000010   -0.000010   -0.000010
    5.053761    5.119844    5.119844    5.119844   -0.000008   -0.000008   -0.000008
    5.093243    5.100896    5.100896    5.100896   -0.000007   -0.000007   -0.000007
    5.132726    5.079260    5.079260    5.079260   -0.000005   -0.000005   -0.000005
    5.172208    5.056674    5.056674    5.056674   -0.000004   -0.000004   -0.000004
    5.211691    5.034408    5.034408    5.034408   -0.000004   -0.000004   -0.000004
    5.251173    5.013205    5.013205    5.013205   -0.000005   -0.000005   -0.000005
    5.290656    4.993192    4.993192    4.993192   -0.000005   -0.000005   -0.000005
    5.330138    4.973898    4.973898    4.973898   -0.000006   -0.000006   -0.000006
    5.369621    4.954251    4.954251    4.954251   -0.000007   -0.000007   -0.000007
    5.409103    4.932546    4.932546    4.932546   -0.000007   -0.000007   -0.000007
    5.448586    4.906412    4.906412    4.906412   -0.000007   -0.000007   -0.000007
    5.488068    4.873049    4.873049    4.873049   -0.000007   -0.000007   -0.000007
    5.527551    4.829979    4.829979    4.829979   -0.000007   -0.000007   -0.000007
    5.567033    4.776232    4.776232    4.776232   -0.000007   -0.000007   -0.000007
    5.606516    4.713439    4.713439    4.713439   -0.000007   -0.000007   -0.000007
    5.645998    4.646233    4.646233    4.646233   -0.000008   -0.000008   -0.000008
    5.685481    4.581483    4.581483    4.581483   -0.000008   -0.000008   -0.000008
    5.724963    4.526652    4.526652    4.526652   -0.000009   -0.000009   -0.000009
    5.764446    4.487765    4.487765    4.487765   -0.000010   -0.000010   -0.000010
    5.803929    4.467959    4.467959    4.467959   -0.000010   -0.000010   -0.000010
    5.843411    4.466999    4.466999    4.466999   -0.000009   -0.000009   -0.000009
    5.882894    4.481773    4.481773    4.481773   -0.000009   -0.000009   -0.000009
    5.922376    4.507415    4.507415    4.507415   -0.000009   -0.000009   -0.000009
    5.961859    4.538485    4.538485    4.538485   -0.000008   -0.000008   -0.000008
    6.001341    4.570082    4.570082    4.570082   -0.000008   -0.000008   -0.000008
    6.040824    4.598812    4.598812    4.598812   -0.000008   -0.000008   -0.000008
    6.080306    4.623632    4.623632    4.623632   -0.000008   -0.000008   -0.000008
    6.119789    4.646360    4.646360    4.646360   -0.000008   -0.000008   -0.000008
    6.159271    4.671595    4.671595    4.671595   -0.000008   -0.000008   -0.000008
    6.198754    4.705905    4.705905    4.705905   -0.000008   -0.000008   -0.000008
    6.238236    4.756522    4.756522    4.756522   -0.000008   -0.000008   -0.000008
    6.277719    4.829861    4.829861    4.829861   -0.000008   -0.000008   -0.000008
    6.317201    4.930110    4.930110    4.930110   -0.000009   -0.000009   -0.000009
    6.356684    5.057802    5.057802    5.057802   -0.000009   -0.000009   -0.000009
    6.396166    5.208446    5.208446    5.208446   -0.000010   -0.000010   -0.000010
    6.435649    5.371615    5.371615    5.371615   -0.000010   -0.000010   -0.000010
    6.475131    5.531418    5.531418    5.531418   -0.000010   -0.000010   -0.000010
    6.514614    5.669010    5.669010    5.669010   -0.000010   -0.000010   -0.000010
    6.554096    5.767003    5.767003    5.767003   -0.000010   -0.000010   -0.000010
    6.593579    5.814286    5.814286    5.814286   -0.000009   -0.000009   -0.000009
    6.633061    5.809441    5.809441    5.809441   -0.000008   -0.000008   -0.000008
    6.672544    5.761108    5.761108    5.761108   -0.000007   -0.000007   -0.000007
    6.712026    5.685265    5.685265    5.685265   -0.000007   -0.000007   -0.000007
    6.751509    5.600447    5.600447    5.600447   -0.000006   -0.000006   -0.000006
    6.790991    5.522756    5.522756    5.522756   -0.000006   -0.000006   -0.000006
    6.830474    5.462258    5.462258    5.462258   -0.000006   -0.000006   -0.000006
    6.869956    5.421574    5.421574    5.421574   -0.000006   -0.000006   -0.000006
    6.909439    5.396781    5.396781    5.396781   -0.000006   -0.000006   -0.000006
    6.948921    5.379919    5.379919    5.379919   -0.000006   -0.000006   -0.000006
    6.988404    5.362181    5.362181    5.362181   -0.000006   -0.000006   -0.000006
    7.027886    5.336730    5.336730    5.336730   -0.000006   -0.000006   -0.000006
    7.067369    5.300385    5.300385    5.300385   -0.000005   -0.000005   -0.000005
    7.106851    5.253937    5.253937    5.253937   -0.000005   -0.000005   -0.000005
    7.146334    5.201390    5.201390    5.201390   -0.000005   -0.000005   -0.000005
    7.185816    5.148612    5.148612    5.148612   -0.000005   -0.000005   -0.000005
    7.225299    5.101958    5.101958    5.101958   -0.000004   -0.000004   -0.000004
    7.264781    5.067021    5.067021    5.067021   -0.000004   -0.000004   -0.000004
    7.304264    5.047653    5.047653    5.047653   -0.000004   -0.000004   -0.000004
    7.343746    5.045218    5.045218    5.045218   -0.000003   -0.000003   -0.000003
    7.383229    5.058171    5.058171    5.058171   -0.000003   -0.000003   -0.000003
    7.422711    5.082200    5.082200    5.082200   -0.000003   -0.000003   -0.000003
    7.462194    5.110913    5.110913    5.110913   -0.000002   -0.000002   -0.000002
    7.501676    5.136917    5.136917    5.136917   -0.000002   -0.000002   -0.000002
    7.541159    5.153095    5.153095    5.153095   -0.000002   -0.000002   -0.000002
    7.580641    5.153839    5.153839    5.153839   -0.000002   -0.000002   -0.000002
    7.620124    5.135979    5.135979    5.135979   -0.000002   -0.000002   -0.000002
    7.659606    5.099318    5.099318    5.099318   -0.000003   -0.000003   -0.000003
    7.699089    5.046546    5.046546    5.046546   -0.000003   -0.000003   -0.000003
    7.738571    4.982514    4.982514    4.982514   -0.000003   -0.000003   -0.000003
    7.778054    4.912916    4.912916    4.912916   -0.000003   -0.000003   -0.000003
    7.817536    4.842847    4.842847    4.842847   -0.000003   -0.000003   -0.000003
    7.857019    4.775699    4.775699    4.775699   -0.000002   -0.000002   -0.000002
    7.896501    4.712909    4.712909    4.712909   -0.000002   -0.000002   -0.000002
    7.935984    4.654560    4.654560    4.654560   -0.000001   -0.000001   -0.000001
    7.975466    4.600413    4.600413    4.600413   -0.000000   -0.000000   -0.000000
    8.014949    4.550686    4.550686    4.550686    0.000000    0.000000    0.000000
    8.054431    4.505998    4.505998    4.505998   -0.000000   -0.000000   -0.000000
    8.093914    4.466566    4.466566    4.466566   -0.000000   -0.000000   -0.000000
    8.133396    4.431279    4.431279    4.431279   -0.000001   -0.000001   -0.000001
    8.172879    4.397291    4.397291    4.397291   -0.000002   -0.000002   -0.000002
    8.212361    4.360738    4.360738    4.360738   -0.000002   -0.000002   -0.000002
    8.251844    4.318349    4.318349    4.318349   -0.000002   -0.000002   -0.000002
    8.291326    4.269132    4.269132    4.269132   -0.000002   -0.000002   -0.000002
    8.330809    4.215432    4.215432    4.215432   -0.000002   -0.000002   -0.000002
    8.370291    4.162710    4.162710    4.162710   -0.000002   -0.000002   -0.000002
    8.409774    4.118064    4.118064    4.118064   -0.000001   -0.000001   -0.000001
    8.449256    4.088000    4.088000    4.088000   -0.000001   -0.000001   -0.000001
    8.488739    4.076224    4.076224    4.076224   -0.000001   -0.000001   -0.000001
    8.528221    4.082151    4.082151    4.082151   -0.000001   -0.000001   -0.000001
    8.567704    4.100621    4.100621    4.100621   -0.000001   -0.000001   -0.000001
    8.607186    4.122937    4.122937    4.122937   -0.000001   -0.000001   -0.000001
    8.646669    4.138942    4.138942    4.138942   -0.000001   -0.000001   -0.000001
    8.686152    4.139597    4.139597    4.139597   -0.000001   -0.000001   -0.000001
    8.725634    4.119289    4.119289    4.119289   -0.000001   -0.000001   -0.000001
    8.765117    4.077187    4.077187    4.077187   -0.000001   -0.000001   -0.000001
    8.804599    4.017265    4.017265    4.017265   -0.000001   -0.000001   -0.000001
    8.844082    3.946941    3.946941    3.946941   -0.000001   -0.000001   -0.000001
    8.883564    3.874917    3.874917    3.874917   -0.000001   -0.000001   -0.000001
    8.923047    3.808884    3.808884    3.808884   -0.000001   -0.000001   -0.000001
    8.962529    3.753761    3.753761    3.753761   -0.000002   -0.000002   -0.000002
    9.002012    3.710916    3.710916    3.710916   -0.000002   -0.000002   -0.000002
    9.041494    3.678289    3.678289    3.678289   -0.000002   -0.000002   -0.000002
    9.080977    3.651256    3.651256    3.651256   -0.000002   -0.000002   -0.000002
    9.120459    3.623911    3.623911    3.623911   -0.000002   -0.000002   -0.000002
