#  frequency dependent IMAGINARY DIELECTRIC FUNCTION (independent particle, no local field effects)
#     E(ev)      X         Y         Z        XY        YZ        ZX
#  --------------------------------------------------------------------------------------
    0.000000    0.000000    0.000000    0.000000    0.000000    0.000000    0.000000
    0.068801    0.002041    0.002041    0.002041    0.000000   -0.000000    0.000000
    0.137602    0.004090    0.004090    0.004090    0.000000   -0.000000    0.000000
    0.206402    0.006155    0.006155    0.006155    0.000000   -0.000000    0.000000
    0.275203    0.008242    0.008242    0.008242    0.000000   -0.000000    0.000000
    0.344004    0.010360    0.010360    0.010360    0.000000   -0.000000    0.000000
    0.412805    0.012518    0.012518    0.012518    0.000000   -0.000000    0.000000
    0.481605    0.014724    0.014724    0.014724    0.000000   -0.000000    0.000000
    0.550406    0.016987    0.016987    0.016987    0.000000   -0.000000    0.000000
    0.619207    0.019319    0.019319    0.019319    0.000000   -0.000000    0.000000
    0.688008    0.021730    0.021730    0.021730    0.000000   -0.000000    0.000000
    0.756809    0.024231    0.024231    0.024231    0.000000   -0.000000    0.000000
    0.825609    0.026836    0.026836    0.026836    0.000000   -0.000000    0.000000
    0.894410    0.029560    0.029560    0.029560    0.000000   -0.000000    0.000000
    0.963211    0.032419    0.032419    0.032419    0.000000   -0.000000    0.000000
    1.032012    0.035431    0.035431    0.035431    0.000000   -0.000000    0.000000
    1.100812    0.038617    0.038617    0.038617    0.000000   -0.000000    0.000000
    1.169613    0.042000    0.042000    0.042000    0.000000   -0.000000    0.000000
    1.238414    0.045609    0.045609    0.045609    0.000000   -0.000000    0.000000
    1.307215    0.049473    0.049473    0.049473    0.000000   -0.000000    0.000000
    1.376016    0.053630    0.053630    0.053630    0.000000   -0.000000    0.000000
    1.444816    0.058122    0.058122    0.058122    0.000000   -0.000000    0.000000
    1.513617    0.062999    0.062999    0.062999    0.000000   -0.000000    0.000000
    1.582418    0.068323    0.068323    0.068323    0.000000   -0.000000    0.000000
    1.651219    0.074164    0.074164    0.074164    0.000000   -0.000000    0.000000
    1.720019    0.080610    0.080610    0.080610    0.000000   -0.000000    0.000000
    1.788820    0.087768    0.087768    0.087768    0.000000   -0.000000    0.000000
    1.857621    0.095772    0.095772    0.095772    0.000000   -0.000000    0.000000
    1.926422    0.104787    0.104787    0.104787    0.000000   -0.000000    0.000000
    1.995223    0.115023    0.115023    0.115023    0.000000   -0.000000    0.000000
    2.064023    0.126722    0.126722    0.126722    0.000000   -0.000000    0.000000
    2.132824    0.140125    0.140125    0.140125    0.000000   -0.000000    0.000000
    2.201625    0.155373    0.155373    0.155373    0.000000   -0.000000    0.000000
    2.270426    0.172380    0.172380    0.172380    0.000000   -0.000000    0.000000
    2.339226    0.190951    0.190951    0.190951    0.000000   -0.000000    0.000000
    2.408027    0.211681    0.211681    0.211681    0.000000   -0.000000    0.000000
    2.476828    0.238362    0.238362    0.238362    0.000000   -0.000000    0.000000
    2.545629    0.281936    0.281936    0.281936    0.000000   -0.000000    0.000000
    2.614429    0.364197    0.364197    0.364197    0.000000   -0.000000    0.000000
    2.683230    0.517299    0.517299    0.517299    0.000000   -0.000000    0.000000
    2.752031    0.774606    0.774606    0.774606    0.000000   -0.000000    0.000000
    2.820832    1.152262    1.152262    1.152262    0.000000   -0.000000    0.000000
    2.889633    1.630512    1.630512    1.630512    0.000000   -0.000000    0.000000
    2.958433    2.153284    2.153284    2.153284   -0.000000   -0.000000    0.000000
    3.027234    2.655722    2.655722    2.655722   -0.000000   -0.000000    0.000000
    3.096035    3.098875    3.098875    3.098875   -0.000000   -0.000000    0.000000
    3.164836    3.475406    3.475406    3.475406    0.000000   -0.000000    0.000000
    3.233636    3.784708    3.784708    3.784708    0.000000   -0.000000    0.000000
    3.302437    4.021706    4.021706    4.021706    0.000000    0.000000    0.000000
    3.371238    4.205555    4.205555    4.205555    0.000000    0.000000    0.000000
    3.440039    4.402082    4.402082    4.402082    0.000000    0.000000    0.000000
    3.508840    4.682488    4.682488    4.682488    0.000000   -0.000000    0.000000
    3.577640    5.051115    5.051115    5.051115    0.000000   -0.000000    0.000000
    3.646441    5.432760    5.432760    5.432760    0.000000   -0.000000    0.000000
    3.715242    5.734253    5.734253    5.734253    0.000000   -0.000000    0.000000
    3.784043    5.903206    5.903206    5.903206    0.000000   -0.000000    0.000000
    3.852843    5.935354    5.935354    5.935354    0.000000   -0.000000    0.000000
    3.921644    5.859224    5.859224    5.859224    0.000000   -0.000000    0.000000
    3.990445    5.725800    5.725800    5.725800    0.000000   -0.000000    0.000000
    4.059246    5.589407    5.589407    5.589407    0.000000   -0.000000    0.000000
    4.128047    5.476748    5.476748    5.476748    0.000000   -0.000000    0.000000
    4.196847    5.377277    5.377277    5.377277    0.000000   -0.000000    0.000000
    4.265648    5.271412    5.271412    5.271412    0.000000   -0.000000    0.000000
    4.334449    5.159016    5.159016    5.159016    0.000000   -0.000000    0.000000
    4.403250    5.050602    5.050602    5.050602    0.000000   -0.000000    0.000000
    4.472050    4.942668    4.942668    4.942668    0.000000    0.000000    0.000000
    4.540851    4.819656    4.819656    4.819656   -0.000000    0.000000   -0.000000
    4.609652    4.676039    4.676039    4.676039   -0.000000    0.000000   -0.000000
    4.678453    4.522055    4.522055    4.522055   -0.000000    0.000000   -0.000000
    4.747254    4.371057    4.371057    4.371057   -0.000000    0.000000   -0.000000
    4.816054    4.234758    4.234758    4.234758    0.000000    0.000000   -0.000000
    4.884855    4.127382    4.127382    4.127382   -0.000000   -0.000000   -0.000000
    4.953656    4.057134    4.057134    4.057134   -0.000000   -0.000000   -0.000000
    5.022457    4.007649    4.007649    4.007649   -0.000000   -0.000000   -0.000000
    5.091257    3.939006    3.939006    3.939006    0.000000   -0.000000   -0.000000
    5.160058    3.819459    3.819459    3.819459    0.000000   -0.000000    0.000000
    5.228859    3.659612    3.659612    3.659612    0.000000   -0.000000    0.000000
    5.297660    3.509059    3.509059    3.509059   -0.000000   -0.000000    0.000000
    5.366461    3.409881    3.409881    3.409881   -0.000000    0.000000    0.000000
    5.435261    3.353893    3.353893    3.353893   -0.000000    0.000000    0.000000
    5.504062    3.294415    3.294415    3.294415   -0.000000    0.000000   -0.000000
    5.572863    3.198344    3.198344    3.198344   -0.000000    0.000000   -0.000000
    5.641664    3.075992    3.075992    3.075992   -0.000000    0.000000   -0.000000
    5.710464    2.962219    2.962219    2.962219    0.000000   -0.000000   -0.000000
    5.779265    2.882137    2.882137    2.882137    0.000000   -0.000000   -0.000000
    5.848066    2.837259    2.837259    2.837259    0.000000   -0.000000    0.000000
    5.916867    2.812439    2.812439    2.812439    0.000000   -0.000000    0.000000
    5.985668    2.786873    2.786873    2.786873    0.000000   -0.000000    0.000000
    6.054468    2.741482    2.741482    2.741482    0.000000   -0.000000    0.000000
    6.123269    2.665879    2.665879    2.665879    0.000000   -0.000000    0.000000
    6.192070    2.564765    2.564765    2.564765    0.000000   -0.000000    0.000000
    6.260871    2.456096    2.456096    2.456096    0.000000   -0.000000    0.000000
    6.329671    2.359907    2.359907    2.359907    0.000000   -0.000000    0.000000
    6.398472    2.288471    2.288471    2.288471    0.000000   -0.000000    0.000000
    6.467273    2.244406    2.244406    2.244406   -0.000000   -0.000000    0.000000
    6.536074    2.221530    2.221530    2.221530   -0.000000    0.000000    0.000000
    6.604874    2.204724    2.204724    2.204724   -0.000000    0.000000   -0.000000
    6.673675    2.175029    2.175029    2.175029   -0.000000    0.000000   -0.000000
    6.742476    2.123205    2.123205    2.123205   -0.000000    0.000000   -0.000000
    6.811277    2.060488    2.060488    2.060488   -0.000000    0.000000   -0.000000
    6.880078    2.012403    2.012403    2.012403   -0.000000    0.000000   -0.000000
    6.948878    1.997441    1.997441    1.997441   -0.000000    0.000000   -0.000000
    7.017679    2.008573    2.008573    2.008573   -0.000000    0.000000   -0.000000
    7.086480    2.015799    2.015799    2.015799   -0.000000    0.000000   -0.000000
    7.155281    1.990976    1.990976    1.990976   -0.000000    0.000000    0.000000
    7.224081    1.932858    1.932858    1.932858   -0.000000    0.000000    0.000000
    7.292882    1.866369    1.866369    1.866369    0.000000   -0.000000    0.000000
    7.361683    1.819301    1.819301    1.819301    0.000000   -0.000000    0.000000
    7.430484    1.804879    1.804879    1.804879    0.000000   -0.000000    0.000000
    7.499285    1.822866    1.822866    1.822866    0.000000   -0.000000    0.000000
    7.568085    1.864372    1.864372    1.864372    0.000000   -0.000000    0.000000
    7.636886    1.911358    1.911358    1.911358   -0.000000   -0.000000    0.000000
    7.705687    1.941127    1.941127    1.941127   -0.000000   -0.000000    0.000000
    7.774488    1.940146    1.940146    1.940146   -0.000000   -0.000000    0.000000
    7.843288    1.914276    1.914276    1.914276   -0.000000   -0.000000   -0.000000
    7.912089    1.884559    1.884559    1.884559   -0.000000   -0.000000   -0.000000
    7.980890    1.873007    1.873007    1.873007   -0.000000   -0.000000   -0.000000
    8.049691    1.889095    1.889095    1.889095   -0.000000   -0.000000   -0.000000
    8.118492    1.924374    1.924374    1.924374   -0.000000   -0.000000   -0.000000
    8.187292    1.958866    1.958866    1.958866    0.000000    0.000000   -0.000000
    8.256093    1.975968    1.975968    1.975968    0.000000    0.000000    0.000000
    8.324894    1.973401    1.973401    1.973401    0.000000    0.000000    0.000000
    8.393695    1.960939    1.960939    1.960939    0.000000    0.000000    0.000000
    8.462495    1.950152    1.950152    1.950152    0.000000    0.000000   -0.000000
    8.531296    1.946869    1.946869    1.946869   -0.000000   -0.000000   -0.000000
    8.600097    1.949219    1.949219    1.949219    0.000000   -0.000000   -0.000000
    8.668898    1.948740    1.948740    1.948740    0.000000   -0.000000   -0.000000
    8.737699    1.934897    1.934897    1.934897    0.000000   -0.000000   -0.000000
    8.806499    1.903040    1.903040    1.903040    0.000000   -0.000000    0.000000
    8.875300    1.859419    1.859419    1.859419    0.000000    0.000000    0.000000
    8.944101    1.817249    1.817249    1.817249    0.000000    0.000000    0.000000
    9.012902    1.787481    1.787481    1.787481   -0.000000    0.000000    0.000000
    9.081702    1.773038    1.773038    1.773038    0.000000    0.000000    0.000000
    9.150503    1.769823    1.769823    1.769823    0.000000    0.000000    0.000000
    9.219304    1.771608    1.771608    1.771608    0.000000   -0.000000    0.000000
    9.288105    1.774840    1.774840    1.774840   -0.000000   -0.000000    0.000000
    9.356906    1.780318    1.780318    1.780318   -0.000000   -0.000000   -0.000000
    9.425706    1.790649    1.790649    1.790649   -0.000000    0.000000   -0.000000
    9.494507    1.806149    1.806149    1.806149   -0.000000    0.000000   -0.000000
    9.563308    1.823146    1.823146    1.823146    0.000000    0.000000    0.000000
    9.632109    1.835650    1.835650    1.835650    0.000000    0.000000    0.000000
    9.700909    1.839107    1.839107    1.839107    0.000000    0.000000    0.000000
    9.769710    1.833878    1.833878    1.833878    0.000000    0.000000    0.000000
    9.838511    1.825265    1.825265    1.825265    0.000000    0.000000    0.000000
    9.907312    1.819608    1.819608    1.819608    0.000000    0.000000    0.000000
    9.976113    1.820501    1.820501    1.820501    0.000000    0.000000    0.000000
   10.044913    1.828981    1.828981    1.828981    0.000000    0.000000    0.000000
   10.113714    1.845477    1.845477    1.845477   -0.000000    0.000000   -0.000000
   10.182515    1.868155    1.868155    1.868155   -0.000000    0.000000   -0.000000
   10.251316    1.888729    1.888729    1.888729   -0.000000    0.000000   -0.000000
   10.320116    1.894936    1.894936    1.894936   -0.000000   -0.000000   -0.000000
   10.388917    1.881763    1.881763    1.881763   -0.000000    0.000000   -0.000000
   10.457718    1.857027    1.857027    1.857027    0.000000    0.000000   -0.000000
   10.526519    1.831377    1.831377    1.831377    0.000000    0.000000   -0.000000
   10.595319    1.806234    1.806234    1.806234   -0.000000    0.000000   -0.000000
   10.664120    1.775675    1.775675    1.775675   -0.000000    0.000000   -0.000000
   10.732921    1.735982    1.735982    1.735982   -0.000000    0.000000   -0.000000
   10.801722    1.689845    1.689845    1.689845   -0.000000    0.000000   -0.000000
   10.870523    1.646036    1.646036    1.646036   -0.000000   -0.000000   -0.000000
   10.939323    1.617666    1.617666    1.617666   -0.000000   -0.000000   -0.000000
   11.008124    1.614901    1.614901    1.614901   -0.000000   -0.000000   -0.000000
   11.076925    1.634908    1.634908    1.634908   -0.000000   -0.000000   -0.000000
   11.145726    1.661398    1.661398    1.661398   -0.000000   -0.000000   -0.000000
   11.214526    1.676869    1.676869    1.676869   -0.000000    0.000000   -0.000000
   11.283327    1.675633    1.675633    1.675633   -0.000000    0.000000   -0.000000
   11.352128    1.665668    1.665668    1.665668   -0.000000    0.000000   -0.000000
   11.420929    1.658605    1.658605    1.658605   -0.000000    0.000000   -0.000000
   11.489730    1.658222    1.658222    1.658222    0.000000   -0.000000    0.000000
   11.558530    1.659353    1.659353    1.659353    0.000000    0.000000    0.000000
   11.627331    1.657227    1.657227    1.657227    0.000000    0.000000    0.000000
   11.696132    1.654626    1.654626    1.654626    0.000000   -0.000000    0.000000
   11.764933    1.658256    1.658256    1.658256    0.000000   -0.000000    0.000000
   11.833733    1.670883    1.670883    1.670883    0.000000    0.000000   -0.000000
   11.902534    1.690236    1.690236    1.690236   -0.000000   -0.000000   -0.000000
   11.971335    1.713686    1.713686    1.713686   -0.000000    0.000000   -0.000000
   12.040136    1.739629    1.739629    1.739629   -0.000000    0.000000   -0.000000
   12.108937    1.764464    1.764464    1.764464   -0.000000    0.000000   -0.000000
   12.177737    1.782594    1.782594    1.782594   -0.000000    0.000000   -0.000000
   12.246538    1.791284    1.791284    1.791284   -0.000000    0.000000   -0.000000
   12.315339    1.793826    1.793826    1.793826   -0.000000    0.000000   -0.000000
   12.384140    1.796911    1.796911    1.796911   -0.000000   -0.000000   -0.000000
   12.452940    1.806303    1.806303    1.806303   -0.000000   -0.000000   -0.000000
   12.521741    1.825326    1.825326    1.825326   -0.000000   -0.000000   -0.000000
   12.590542    1.854457    1.854457    1.854457   -0.000000   -0.000000   -0.000000
   12.659343    1.889273    1.889273    1.889273   -0.000000   -0.000000   -0.000000
   12.728144    1.920956    1.920956    1.920956   -0.000000   -0.000000   -0.000000
   12.796944    1.943966    1.943966    1.943966   -0.000000   -0.000000   -0.000000
   12.865745    1.963730    1.963730    1.963730   -0.000000   -0.000000   -0.000000
   12.934546    1.992224    1.992224    1.992224   -0.000000   -0.000000   -0.000000
   13.003347    2.033589    2.033589    2.033589    0.000000   -0.000000   -0.000000
   13.072147    2.076474    2.076474    2.076474    0.000000   -0.000000    0.000000
   13.140948    2.103072    2.103072    2.103072    0.000000   -0.000000    0.000000
   13.209749    2.105239    2.105239    2.105239    0.000000   -0.000000    0.000000
   13.278550    2.090268    2.090268    2.090268    0.000000   -0.000000    0.000000
   13.347351    2.072257    2.072257    2.072257    0.000000   -0.000000    0.000000
   13.416151    2.060825    2.060825    2.060825    0.000000   -0.000000    0.000000
   13.484952    2.057130    2.057130    2.057130    0.000000   -0.000000    0.000000
   13.553753    2.055993    2.055993    2.055993    0.000000   -0.000000    0.000000
   13.622554    2.050467    2.050467    2.050467    0.000000    0.000000    0.000000
   13.691354    2.037611    2.037611    2.037611    0.000000    0.000000    0.000000
   13.760155    2.022476    2.022476    2.022476    0.000000   -0.000000   -0.000000
   13.828956    2.015180    2.015180    2.015180    0.000000   -0.000000   -0.000000
   13.897757    2.021070    2.021070    2.021070   -0.000000   -0.000000   -0.000000
   13.966558    2.033361    2.033361    2.033361   -0.000000   -0.000000   -0.000000
   14.035358    2.037261    2.037261    2.037261   -0.000000   -0.000000   -0.000000
   14.104159    2.021029    2.021029    2.021029   -0.000000   -0.000000   -0.000000
   14.172960    1.981883    1.981883    1.981883   -0.000000    0.000000   -0.000000
   14.241761    1.924747    1.924747    1.924747   -0.000000    0.000000   -0.000000
   14.310561    1.861364    1.861364    1.861364   -0.000000    0.000000   -0.000000
   14.379362    1.809394    1.809394    1.809394   -0.000000    0.000000   -0.000000
   14.448163    1.783533    1.783533    1.783533   -0.000000    0.000000   -0.000000
   14.516964    1.782733    1.782733    1.782733   -0.000000    0.000000    0.000000
   14.585765    1.790559    1.790559    1.790559    0.000000    0.000000    0.000000
   14.654565    1.792439    1.792439    1.792439    0.000000    0.000000    0.000000
   14.723366    1.789429    1.789429    1.789429    0.000000    0.000000    0.000000
   14.792167    1.790421    1.790421    1.790421    0.000000    0.000000    0.000000
   14.860968    1.793873    1.793873    1.793873    0.000000    0.000000    0.000000
   14.929768    1.784691    1.784691    1.784691    0.000000    0.000000    0.000000
   14.998569    1.750135    1.750135    1.750135    0.000000   -0.000000    0.000000
   15.067370    1.693304    1.693304    1.693304    0.000000   -0.000000    0.000000
   15.136171    1.629517    1.629517    1.629517    0.000000   -0.000000    0.000000
   15.204971    1.574057    1.574057    1.574057   -0.000000   -0.000000    0.000000
   15.273772    1.534941    1.534941    1.534941   -0.000000   -0.000000   -0.000000
   15.342573    1.513168    1.513168    1.513168    0.000000    0.000000   -0.000000
   15.411374    1.506561    1.506561    1.506561    0.000000    0.000000   -0.000000
   15.480175    1.513677    1.513677    1.513677   -0.000000   -0.000000   -0.000000
   15.548975    1.533390    1.533390    1.533390   -0.000000   -0.000000   -0.000000
   15.617776    1.558860    1.558860    1.558860   -0.000000    0.000000   -0.000000
   15.686577    1.574746    1.574746    1.574746   -0.000000    0.000000   -0.000000
   15.755378    1.566124    1.566124    1.566124   -0.000000    0.000000   -0.000000
   15.824178    1.530918    1.530918    1.530918   -0.000000    0.000000   -0.000000
   15.892979    1.480521    1.480521    1.480521   -0.000000   -0.000000   -0.000000
